0,0.817
0.001,0.807
0.002,0.807
0.003,0.803
0.004,0.794
0.005,0.793
0.006,0.79
0.007,0.787
0.008,0.777
0.009,0.78
0.01,0.767
0.011,0.777
0.012,0.761
0.013,0.761
0.014,0.754
0.015,0.751
0.016,0.761
0.017,0.754
0.018,0.751
0.019,0.754
0.02,0.774
0.021,0.754
0.022,0.748
0.023,0.757
0.024,0.761
0.025,0.754
0.026,0.764
0.027,0.754
0.028,0.757
0.029,0.748
0.03,0.751
0.031,0.754
0.032,0.751
0.033,0.748
0.034,0.747
0.035,0.747
0.036,0.747
0.037,0.744
0.038,0.744
0.039,0.741
0.04,0.751
0.041,0.761
0.042,0.748
0.043,0.744
0.044,0.751
0.045,0.764
0.046,0.744
0.047,0.741
0.048,0.744
0.049,0.741
0.05,0.738
0.051,0.741
0.052,0.754
0.053,0.741
0.054,0.747
0.055,0.747
0.056,0.754
0.057,0.744
0.058,0.767
0.059,0.761
0.06,0.764
0.061,0.767
0.062,0.774
0.063,0.761
0.064,0.757
0.065,0.777
0.066,0.767
0.067,0.767
0.068,0.761
0.069,0.774
0.07,0.761
0.071,0.757
0.072,0.761
0.073,0.774
0.074,0.78
0.075,0.806
0.076,0.803
0.077,0.816
0.078,0.849
0.079,0.888
0.08,0.905
0.081,0.928
0.082,0.957
0.083,0.987
0.084,1.007
0.085,1.03
0.086,1.053
0.087,1.069
0.088,1.089
0.089,1.096
0.09,1.096
0.091,1.092
0.092,1.102
0.093,1.112
0.094,1.112
0.095,1.089
0.096,1.057
0.097,1.017
0.098,0.975
0.099,0.935
0.1,0.892
0.101,0.814
0.102,0.764
0.103,0.699
0.104,0.627
0.105,0.548
0.106,0.489
0.107,0.397
0.108,0.367
0.109,0.321
0.11,0.268
0.111,0.248
0.112,0.186
0.113,0.137
0.114,0.101
0.115,0.084
0.116,0.055
0.117,0.048
0.118,-0.001
0.119,-0.024
0.12,-0.015
0.121,0.011
0.122,0.038
0.123,0.1
0.124,0.139
0.125,0.201
0.126,0.248
0.127,0.3
0.128,0.33
0.129,0.373
0.13,0.399
0.131,0.422
0.132,0.448
0.133,0.484
0.134,0.517
0.135,0.537
0.136,0.56
0.137,0.599
0.138,0.639
0.139,0.639
0.14,0.672
0.141,0.698
0.142,0.708
0.143,0.711
0.144,0.744
0.145,0.764
0.146,0.774
0.147,0.78
0.148,0.79
0.149,0.813
0.15,0.807
0.151,0.813
0.152,0.81
0.153,0.826
0.154,0.826
0.155,0.839
0.156,0.817
0.157,0.82
0.158,0.83
0.159,0.839
0.16,0.833
0.161,0.83
0.162,0.846
0.163,0.846
0.164,0.843
0.165,0.846
0.166,0.836
0.167,0.843
0.168,0.859
0.169,0.84
0.17,0.836
0.171,0.846
0.172,0.853
0.173,0.846
0.174,0.84
0.175,0.846
0.176,0.846
0.177,0.846
0.178,0.849
0.179,0.859
0.18,0.856
0.181,0.856
0.182,0.853
0.183,0.853
0.184,0.866
0.185,0.866
0.186,0.856
0.187,0.84
0.188,0.856
0.189,0.866
0.19,0.853
0.191,0.846
0.192,0.853
0.193,0.853
0.194,0.849
0.195,0.859
0.196,0.859
0.197,0.856
0.198,0.853
0.199,0.856
0.2,0.866
0.201,0.866
0.202,0.866
0.203,0.859
0.204,0.859
0.205,0.869
0.206,0.869
0.207,0.856
0.208,0.859
0.209,0.866
0.21,0.866
0.211,0.849
0.212,0.859
0.213,0.869
0.214,0.866
0.215,0.862
0.216,0.866
0.217,0.859
0.218,0.866
0.219,0.869
0.22,0.869
0.221,0.869
0.222,0.879
0.223,0.892
0.224,0.876
0.225,0.879
0.226,0.879
0.227,0.879
0.228,0.872
0.229,0.879
0.23,0.882
0.231,0.879
0.232,0.879
0.233,0.876
0.234,0.876
0.235,0.879
0.236,0.895
0.237,0.879
0.238,0.879
0.239,0.892
0.24,0.902
0.241,0.889
0.242,0.895
0.243,0.905
0.244,0.895
0.245,0.889
0.246,0.899
0.247,0.905
0.248,0.895
0.249,0.899
0.25,0.899
0.251,0.905
0.252,0.905
0.253,0.918
0.254,0.902
0.255,0.895
0.256,0.895
0.257,0.905
0.258,0.895
0.259,0.902
0.26,0.918
0.261,0.909
0.262,0.902
0.263,0.902
0.264,0.912
0.265,0.912
0.266,0.918
0.267,0.909
0.268,0.908
0.269,0.918
0.27,0.931
0.271,0.912
0.272,0.899
0.273,0.915
0.274,0.912
0.275,0.908
0.276,0.912
0.277,0.922
0.278,0.909
0.279,0.915
0.28,0.912
0.281,0.918
0.282,0.915
0.283,0.931
0.284,0.915
0.285,0.912
0.286,0.922
0.287,0.925
0.288,0.912
0.289,0.922
0.29,0.928
0.291,0.915
0.292,0.922
0.293,0.922
0.294,0.918
0.295,0.925
0.296,0.922
0.297,0.922
0.298,0.918
0.299,0.925
0.3,0.931
0.301,0.918
0.302,0.918
0.303,0.928
0.304,0.931
0.305,0.931
0.306,0.935
0.307,0.931
0.308,0.931
0.309,0.918
0.31,0.928
0.311,0.938
0.312,0.932
0.313,0.935
0.314,0.931
0.315,0.918
0.316,0.931
0.317,0.938
0.318,0.925
0.319,0.925
0.32,0.941
0.321,0.945
0.322,0.928
0.323,0.935
0.324,0.945
0.325,0.925
0.326,0.931
0.327,0.935
0.328,0.931
0.329,0.931
0.33,0.925
0.331,0.925
0.332,0.918
0.333,0.931
0.334,0.928
0.335,0.922
0.336,0.931
0.337,0.931
0.338,0.935
0.339,0.931
0.34,0.925
0.341,0.935
0.342,0.945
0.343,0.945
0.344,0.935
0.345,0.931
0.346,0.935
0.347,0.948
0.348,0.932
0.349,0.918
0.35,0.931
0.351,0.922
0.352,0.925
0.353,0.938
0.354,0.935
0.355,0.925
0.356,0.928
0.357,0.931
0.358,0.931
0.359,0.941
0.36,0.951
0.361,0.932
0.362,0.938
0.363,0.928
0.364,0.948
0.365,0.941
0.366,0.922
0.367,0.944
0.368,0.945
0.369,0.935
0.37,0.931
0.371,0.931
0.372,0.935
0.373,0.935
0.374,0.925
0.375,0.935
0.376,0.938
0.377,0.948
0.378,0.935
0.379,0.931
0.38,0.948
0.381,0.951
0.382,0.935
0.383,0.945
0.384,0.948
0.385,0.941
0.386,0.945
0.387,0.938
0.388,0.941
0.389,0.938
0.39,0.941
0.391,0.928
0.392,0.922
0.393,0.931
0.394,0.941
0.395,0.922
0.396,0.918
0.397,0.931
0.398,0.935
0.399,0.922
0.4,0.925
0.401,0.928
0.402,0.925
0.403,0.922
0.404,0.909
0.405,0.908
0.406,0.915
0.407,0.912
0.408,0.899
0.409,0.895
0.41,0.892
0.411,0.905
0.412,0.882
0.413,0.889
0.414,0.879
0.415,0.879
0.416,0.866
0.417,0.876
0.418,0.879
0.419,0.859
0.42,0.862
0.421,0.859
0.422,0.862
0.423,0.862
0.424,0.869
0.425,0.859
0.426,0.84
0.427,0.852
0.428,0.849
0.429,0.843
0.43,0.833
0.431,0.843
0.432,0.82
0.433,0.83
0.434,0.823
0.435,0.826
0.436,0.817
0.437,0.826
0.438,0.807
0.439,0.807
0.44,0.82
0.441,0.83
0.442,0.804
0.443,0.807
0.444,0.816
0.445,0.807
0.446,0.807
0.447,0.807
0.448,0.807
0.449,0.807
0.45,0.794
0.451,0.793
0.452,0.793
0.453,0.797
0.454,0.8
0.455,0.79
0.456,0.774
0.457,0.79
0.458,0.793
0.459,0.79
0.46,0.79
0.461,0.79
0.462,0.787
0.463,0.787
0.464,0.787
0.465,0.8
0.466,0.797
0.467,0.79
0.468,0.793
0.469,0.78
0.47,0.793
0.471,0.803
0.472,0.781
0.473,0.78
0.474,0.79
0.475,0.79
0.476,0.78
0.477,0.79
0.478,0.787
0.479,0.797
0.48,0.794
0.481,0.793
0.482,0.787
0.483,0.79
0.484,0.8
0.485,0.794
0.486,0.787
0.487,0.787
0.488,0.806
0.489,0.79
0.49,0.771
0.491,0.783
0.492,0.793
0.493,0.787
0.494,0.787
0.495,0.79
0.496,0.784
0.497,0.784
0.498,0.787
0.499,0.793
0.5,0.79
0.501,0.793
0.502,0.79
0.503,0.787
0.504,0.8
0.505,0.803
0.506,0.794
0.507,0.793
0.508,0.803
0.509,0.81
0.51,0.787
0.511,0.787
0.512,0.803
0.513,0.79
0.514,0.787
0.515,0.797
0.516,0.797
0.517,0.797
0.518,0.787
0.519,0.79
0.52,0.8
0.521,0.8
0.522,0.813
0.523,0.797
0.524,0.797
0.525,0.807
0.526,0.807
0.527,0.794
0.528,0.803
0.529,0.82
0.53,0.8
0.531,0.807
0.532,0.803
0.533,0.803
0.534,0.794
0.535,0.81
0.536,0.8
0.537,0.8
0.538,0.8
0.539,0.813
0.54,0.8
0.541,0.787
0.542,0.806
0.543,0.81
0.544,0.8
0.545,0.803
0.546,0.816
0.547,0.807
0.548,0.803
0.549,0.803
0.55,0.807
0.551,0.807
0.552,0.807
0.553,0.803
0.554,0.807
0.555,0.8
0.556,0.807
0.557,0.8
0.558,0.787
0.559,0.793
0.56,0.81
0.561,0.797
0.562,0.8
0.563,0.8
0.564,0.803
0.565,0.797
0.566,0.803
0.567,0.803
0.568,0.8
0.569,0.8
0.57,0.8
0.571,0.803
0.572,0.794
0.573,0.797
0.574,0.8
0.575,0.79
0.576,0.787
0.577,0.8
0.578,0.794
0.579,0.777
0.58,0.797
0.581,0.797
0.582,0.794
0.583,0.79
0.584,0.793
0.585,0.78
0.586,0.774
0.587,0.787
0.588,0.793
0.589,0.79
0.59,0.787
0.591,0.784
0.592,0.777
0.593,0.771
0.594,0.78
0.595,0.78
0.596,0.777
0.597,0.777
0.598,0.784
0.599,0.771
0.6,0.761
0.601,0.78
0.602,0.78
0.603,0.764
0.604,0.777
0.605,0.78
0.606,0.777
0.607,0.774
0.608,0.777
0.609,0.771
0.61,0.77
0.611,0.764
0.612,0.767
0.613,0.764
0.614,0.77
0.615,0.774
0.616,0.761
0.617,0.748
0.618,0.764
0.619,0.774
0.62,0.767
0.621,0.754
0.622,0.761
0.623,0.761
0.624,0.754
0.625,0.751
0.626,0.764
0.627,0.761
0.628,0.757
0.629,0.754
0.63,0.748
0.631,0.754
0.632,0.764
0.633,0.754
0.634,0.748
0.635,0.757
0.636,0.754
0.637,0.741
0.638,0.744
0.639,0.751
0.64,0.748
0.641,0.747
0.642,0.747
0.643,0.76
0.644,0.751
0.645,0.748
0.646,0.747
0.647,0.747
0.648,0.747
0.649,0.747
0.65,0.741
0.651,0.738
0.652,0.744
0.653,0.767
0.654,0.744
0.655,0.747
0.656,0.751
0.657,0.741
0.658,0.744
0.659,0.741
0.66,0.757
0.661,0.741
0.662,0.747
0.663,0.747
0.664,0.754
0.665,0.751
0.666,0.757
0.667,0.744
0.668,0.744
0.669,0.751
0.67,0.761
0.671,0.738
0.672,0.734
0.673,0.747
0.674,0.734
0.675,0.731
0.676,0.741
0.677,0.751
0.678,0.741
0.679,0.744
0.68,0.751
0.681,0.738
0.682,0.744
0.683,0.747
0.684,0.744
0.685,0.741
0.686,0.741
0.687,0.757
0.688,0.741
0.689,0.744
0.69,0.751
0.691,0.738
0.692,0.754
0.693,0.735
0.694,0.747
0.695,0.738
0.696,0.738
0.697,0.741
0.698,0.744
0.699,0.734
0.7,0.744
0.701,0.734
0.702,0.731
0.703,0.741
0.704,0.747
0.705,0.744
0.706,0.734
0.707,0.741
0.708,0.744
0.709,0.741
0.71,0.744
0.711,0.751
0.712,0.744
0.713,0.734
0.714,0.741
0.715,0.747
0.716,0.741
0.717,0.747
0.718,0.744
0.719,0.741
0.72,0.751
0.721,0.754
0.722,0.741
0.723,0.741
0.724,0.754
0.725,0.748
0.726,0.747
0.727,0.747
0.728,0.754
0.729,0.741
0.73,0.734
0.731,0.734
0.732,0.741
0.733,0.741
0.734,0.757
0.735,0.741
0.736,0.731
0.737,0.751
0.738,0.761
0.739,0.738
0.74,0.747
0.741,0.751
0.742,0.748
0.743,0.744
0.744,0.747
0.745,0.767
0.746,0.748
0.747,0.751
0.748,0.757
0.749,0.748
0.75,0.747
0.751,0.767
0.752,0.754
0.753,0.754
0.754,0.767
0.755,0.767
0.756,0.754
0.757,0.767
0.758,0.77
0.759,0.777
0.76,0.771
0.761,0.79
0.762,0.793
0.763,0.8
0.764,0.803
0.765,0.807
0.766,0.813
0.767,0.82
0.768,0.826
0.769,0.823
0.77,0.817
0.771,0.846
0.772,0.859
0.773,0.833
0.774,0.836
0.775,0.852
0.776,0.872
0.777,0.872
0.778,0.859
0.779,0.869
0.78,0.866
0.781,0.866
0.782,0.876
0.783,0.879
0.784,0.885
0.785,0.892
0.786,0.892
0.787,0.912
0.788,0.931
0.789,0.935
0.79,0.915
0.791,0.909
0.792,0.912
0.793,0.931
0.794,0.912
0.795,0.892
0.796,0.879
0.797,0.885
0.798,0.889
0.799,0.899
0.8,0.902
0.801,0.899
0.802,0.895
0.803,0.915
0.804,0.922
0.805,0.931
0.806,0.931
0.807,0.935
0.808,0.922
0.809,0.922
0.81,0.928
0.811,0.912
0.812,0.899
0.813,0.902
0.814,0.905
0.815,0.879
0.816,0.898
0.817,0.886
0.818,0.869
0.819,0.846
0.82,0.849
0.821,0.846
0.822,0.827
0.823,0.82
0.824,0.807
0.825,0.807
0.826,0.807
0.827,0.807
0.828,0.784
0.829,0.78
0.83,0.784
0.831,0.78
0.832,0.764
0.833,0.77
0.834,0.777
0.835,0.754
0.836,0.738
0.837,0.744
0.838,0.747
0.839,0.754
0.84,0.748
0.841,0.747
0.842,0.738
0.843,0.731
0.844,0.738
0.845,0.715
0.846,0.711
0.847,0.734
0.848,0.725
0.849,0.724
0.85,0.721
0.851,0.711
0.852,0.708
0.853,0.705
0.854,0.705
0.855,0.715
0.856,0.705
0.857,0.721
0.858,0.711
0.859,0.695
0.86,0.711
0.861,0.728
0.862,0.708
0.863,0.698
0.864,0.714
0.865,0.718
0.866,0.702
0.867,0.721
0.868,0.711
0.869,0.702
0.87,0.701
0.871,0.714
0.872,0.702
0.873,0.711
0.874,0.715
0.875,0.695
0.876,0.692
0.877,0.705
0.878,0.724
0.879,0.702
0.88,0.708
0.881,0.711
0.882,0.708
0.883,0.708
0.884,0.715
0.885,0.715
0.886,0.715
0.887,0.718
0.888,0.721
0.889,0.715
0.89,0.721
0.891,0.724
0.892,0.718
0.893,0.708
0.894,0.721
0.895,0.731
0.896,0.715
0.897,0.708
0.898,0.715
0.899,0.734
0.9,0.725
0.901,0.724
0.902,0.718
0.903,0.721
0.904,0.728
0.905,0.728
0.906,0.731
0.907,0.747
0.908,0.76
0.909,0.774
0.91,0.787
0.911,0.819
0.912,0.859
0.913,0.875
0.914,0.895
0.915,0.921
0.916,0.951
0.917,0.954
0.918,0.984
0.919,1.01
0.92,1.036
0.921,1.037
0.922,1.046
0.923,1.05
0.924,1.053
0.925,1.063
0.926,1.066
0.927,1.03
0.928,1.007
0.929,0.988
0.93,0.932
0.931,0.87
0.932,0.81
0.933,0.761
0.934,0.715
0.935,0.669
0.936,0.626
0.937,0.554
0.938,0.469
0.939,0.393
0.94,0.337
0.941,0.321
0.942,0.307
0.943,0.278
0.944,0.252
0.945,0.199
0.946,0.16
0.947,0.104
0.948,0.084
0.949,0.058
0.95,0.028
0.951,-0.014
0.952,-0.034
0.953,-0.008
0.954,0.024
0.955,0.054
0.956,0.097
0.957,0.139
0.958,0.175
0.959,0.231
0.96,0.274
0.961,0.294
0.962,0.346
0.963,0.379
0.964,0.396
0.965,0.419
0.966,0.442
0.967,0.474
0.968,0.481
0.969,0.488
0.97,0.537
0.971,0.573
0.972,0.577
0.973,0.606
0.974,0.619
0.975,0.632
0.976,0.645
0.977,0.668
0.978,0.688
0.979,0.701
0.98,0.711
0.981,0.734
0.982,0.738
0.983,0.751
0.984,0.751
0.985,0.757
0.986,0.757
0.987,0.761
0.988,0.774
0.989,0.764
0.99,0.764
0.991,0.767
0.992,0.764
0.993,0.767
0.994,0.774
0.995,0.78
0.996,0.774
0.997,0.774
0.998,0.793
0.999,0.787
1,0.777
1.001,0.793
1.002,0.787
1.003,0.78
1.004,0.793
1.005,0.797
1.006,0.79
1.007,0.793
1.008,0.79
1.009,0.816
1.01,0.8
1.011,0.787
1.012,0.8
1.013,0.79
1.014,0.793
1.015,0.793
1.016,0.803
1.017,0.794
1.018,0.8
1.019,0.797
1.02,0.8
1.021,0.813
1.022,0.82
1.023,0.803
1.024,0.807
1.025,0.784
1.026,0.806
1.027,0.803
1.028,0.81
1.029,0.813
1.03,0.803
1.031,0.803
1.032,0.807
1.033,0.803
1.034,0.807
1.035,0.81
1.036,0.8
1.037,0.8
1.038,0.803
1.039,0.829
1.04,0.804
1.041,0.797
1.042,0.816
1.043,0.82
1.044,0.813
1.045,0.823
1.046,0.823
1.047,0.826
1.048,0.817
1.049,0.829
1.05,0.826
1.051,0.83
1.052,0.826
1.053,0.83
1.054,0.817
1.055,0.833
1.056,0.846
1.057,0.827
1.058,0.83
1.059,0.839
1.06,0.846
1.061,0.836
1.062,0.833
1.063,0.83
1.064,0.846
1.065,0.84
1.066,0.846
1.067,0.849
1.068,0.849
1.069,0.853
1.07,0.846
1.071,0.843
1.072,0.846
1.073,0.862
1.074,0.836
1.075,0.846
1.076,0.846
1.077,0.846
1.078,0.849
1.079,0.853
1.08,0.856
1.081,0.849
1.082,0.846
1.083,0.853
1.084,0.869
1.085,0.859
1.086,0.859
1.087,0.859
1.088,0.846
1.089,0.853
1.09,0.872
1.091,0.859
1.092,0.853
1.093,0.866
1.094,0.869
1.095,0.853
1.096,0.849
1.097,0.862
1.098,0.862
1.099,0.869
1.1,0.866
1.101,0.869
1.102,0.869
1.103,0.859
1.104,0.862
1.105,0.872
1.106,0.879
1.107,0.859
1.108,0.859
1.109,0.872
1.11,0.876
1.111,0.872
1.112,0.859
1.113,0.853
1.114,0.862
1.115,0.882
1.116,0.859
1.117,0.859
1.118,0.869
1.119,0.863
1.12,0.853
1.121,0.866
1.122,0.872
1.123,0.879
1.124,0.879
1.125,0.866
1.126,0.872
1.127,0.872
1.128,0.889
1.129,0.869
1.13,0.869
1.131,0.882
1.132,0.882
1.133,0.869
1.134,0.863
1.135,0.859
1.136,0.872
1.137,0.859
1.138,0.872
1.139,0.876
1.14,0.879
1.141,0.879
1.142,0.872
1.143,0.882
1.144,0.882
1.145,0.889
1.146,0.866
1.147,0.853
1.148,0.866
1.149,0.889
1.15,0.869
1.151,0.872
1.152,0.869
1.153,0.872
1.154,0.876
1.155,0.866
1.156,0.872
1.157,0.869
1.158,0.872
1.159,0.866
1.16,0.869
1.161,0.885
1.162,0.892
1.163,0.882
1.164,0.889
1.165,0.885
1.166,0.898
1.167,0.889
1.168,0.889
1.169,0.889
1.17,0.872
1.171,0.866
1.172,0.869
1.173,0.885
1.174,0.879
1.175,0.879
1.176,0.872
1.177,0.892
1.178,0.889
1.179,0.885
1.18,0.882
1.181,0.869
1.182,0.882
1.183,0.898
1.184,0.889
1.185,0.885
1.186,0.882
1.187,0.885
1.188,0.882
1.189,0.885
1.19,0.892
1.191,0.886
1.192,0.879
1.193,0.879
1.194,0.882
1.195,0.892
1.196,0.886
1.197,0.872
1.198,0.882
1.199,0.882
1.2,0.908
1.201,0.889
1.202,0.889
1.203,0.892
1.204,0.902
1.205,0.892
1.206,0.895
1.207,0.899
1.208,0.905
1.209,0.899
1.21,0.895
1.211,0.905
1.212,0.892
1.213,0.892
1.214,0.899
1.215,0.889
1.216,0.892
1.217,0.902
1.218,0.899
1.219,0.892
1.22,0.908
1.221,0.905
1.222,0.899
1.223,0.899
1.224,0.902
1.225,0.905
1.226,0.892
1.227,0.892
1.228,0.905
1.229,0.899
1.23,0.892
1.231,0.882
1.232,0.885
1.233,0.885
1.234,0.895
1.235,0.873
1.236,0.859
1.237,0.875
1.238,0.882
1.239,0.866
1.24,0.866
1.241,0.879
1.242,0.872
1.243,0.856
1.244,0.859
1.245,0.859
1.246,0.862
1.247,0.846
1.248,0.853
1.249,0.84
1.25,0.839
1.251,0.849
1.252,0.83
1.253,0.813
1.254,0.823
1.255,0.823
1.256,0.817
1.257,0.81
1.258,0.82
1.259,0.813
1.26,0.81
1.261,0.8
1.262,0.807
1.263,0.803
1.264,0.81
1.265,0.803
1.266,0.797
1.267,0.8
1.268,0.813
1.269,0.794
1.27,0.787
1.271,0.787
1.272,0.787
1.273,0.784
1.274,0.774
1.275,0.793
1.276,0.78
1.277,0.767
1.278,0.774
1.279,0.764
1.28,0.774
1.281,0.78
1.282,0.771
1.283,0.761
1.284,0.777
1.285,0.784
1.286,0.761
1.287,0.761
1.288,0.777
1.289,0.78
1.29,0.771
1.291,0.767
1.292,0.77
1.293,0.767
1.294,0.764
1.295,0.761
1.296,0.77
1.297,0.757
1.298,0.761
1.299,0.764
1.3,0.767
1.301,0.764
1.302,0.774
1.303,0.767
1.304,0.761
1.305,0.783
1.306,0.784
1.307,0.767
1.308,0.767
1.309,0.761
1.31,0.77
1.311,0.748
1.312,0.754
1.313,0.767
1.314,0.774
1.315,0.78
1.316,0.764
1.317,0.754
1.318,0.77
1.319,0.774
1.32,0.777
1.321,0.774
1.322,0.767
1.323,0.783
1.324,0.784
1.325,0.767
1.326,0.787
1.327,0.767
1.328,0.761
1.329,0.757
1.33,0.777
1.331,0.774
1.332,0.784
1.333,0.771
1.334,0.77
1.335,0.774
1.336,0.774
1.337,0.761
1.338,0.767
1.339,0.764
1.34,0.777
1.341,0.777
1.342,0.771
1.343,0.777
1.344,0.777
1.345,0.784
1.346,0.774
1.347,0.787
1.348,0.774
1.349,0.771
1.35,0.777
1.351,0.777
1.352,0.78
1.353,0.78
1.354,0.774
1.355,0.78
1.356,0.787
1.357,0.797
1.358,0.774
1.359,0.777
1.36,0.79
1.361,0.79
1.362,0.774
1.363,0.777
1.364,0.78
1.365,0.787
1.366,0.793
1.367,0.793
1.368,0.797
1.369,0.787
1.37,0.793
1.371,0.771
1.372,0.764
1.373,0.787
1.374,0.79
1.375,0.767
1.376,0.777
1.377,0.777
1.378,0.784
1.379,0.774
1.38,0.78
1.381,0.784
1.382,0.78
1.383,0.774
1.384,0.774
1.385,0.79
1.386,0.78
1.387,0.787
1.388,0.787
1.389,0.78
1.39,0.78
1.391,0.79
1.392,0.774
1.393,0.774
1.394,0.79
1.395,0.797
1.396,0.767
1.397,0.754
1.398,0.777
1.399,0.78
1.4,0.774
1.401,0.777
1.402,0.787
1.403,0.777
1.404,0.784
1.405,0.784
1.406,0.774
1.407,0.777
1.408,0.784
1.409,0.771
1.41,0.754
1.411,0.777
1.412,0.787
1.413,0.774
1.414,0.767
1.415,0.761
1.416,0.764
1.417,0.764
1.418,0.774
1.419,0.777
1.42,0.767
1.421,0.757
1.422,0.777
1.423,0.774
1.424,0.777
1.425,0.777
1.426,0.784
1.427,0.774
1.428,0.774
1.429,0.764
1.43,0.77
1.431,0.764
1.432,0.774
1.433,0.761
1.434,0.764
1.435,0.767
1.436,0.764
1.437,0.767
1.438,0.751
1.439,0.764
1.44,0.764
1.441,0.764
1.442,0.774
1.443,0.758
1.444,0.751
1.445,0.764
1.446,0.787
1.447,0.767
1.448,0.754
1.449,0.761
1.45,0.754
1.451,0.764
1.452,0.761
1.453,0.757
1.454,0.751
1.455,0.761
1.456,0.741
1.457,0.754
1.458,0.757
1.459,0.767
1.46,0.754
1.461,0.754
1.462,0.757
1.463,0.761
1.464,0.751
1.465,0.761
1.466,0.767
1.467,0.748
1.468,0.751
1.469,0.754
1.47,0.757
1.471,0.754
1.472,0.757
1.473,0.748
1.474,0.747
1.475,0.757
1.476,0.757
1.477,0.748
1.478,0.744
1.479,0.76
1.48,0.744
1.481,0.744
1.482,0.764
1.483,0.761
1.484,0.754
1.485,0.754
1.486,0.764
1.487,0.757
1.488,0.754
1.489,0.767
1.49,0.751
1.491,0.735
1.492,0.754
1.493,0.764
1.494,0.741
1.495,0.747
1.496,0.751
1.497,0.748
1.498,0.76
1.499,0.761
1.5,0.757
1.501,0.754
1.502,0.757
1.503,0.757
1.504,0.764
1.505,0.748
1.506,0.757
1.507,0.764
1.508,0.751
1.509,0.764
1.51,0.754
1.511,0.751
1.512,0.735
1.513,0.767
1.514,0.774
1.515,0.738
1.516,0.738
1.517,0.751
1.518,0.761
1.519,0.744
1.52,0.76
1.521,0.757
1.522,0.757
1.523,0.761
1.524,0.751
1.525,0.757
1.526,0.748
1.527,0.773
1.528,0.754
1.529,0.744
1.53,0.754
1.531,0.764
1.532,0.738
1.533,0.747
1.534,0.754
1.535,0.764
1.536,0.767
1.537,0.767
1.538,0.757
1.539,0.744
1.54,0.751
1.541,0.751
1.542,0.764
1.543,0.757
1.544,0.748
1.545,0.754
1.546,0.761
1.547,0.754
1.548,0.761
1.549,0.761
1.55,0.741
1.551,0.751
1.552,0.751
1.553,0.744
1.554,0.757
1.555,0.757
1.556,0.751
1.557,0.741
1.558,0.757
1.559,0.761
1.56,0.757
1.561,0.761
1.562,0.754
1.563,0.761
1.564,0.761
1.565,0.767
1.566,0.77
1.567,0.764
1.568,0.774
1.569,0.771
1.57,0.754
1.571,0.761
1.572,0.767
1.573,0.764
1.574,0.77
1.575,0.777
1.576,0.774
1.577,0.761
1.578,0.78
1.579,0.78
1.58,0.797
1.581,0.784
1.582,0.806
1.583,0.803
1.584,0.807
1.585,0.807
1.586,0.823
1.587,0.813
1.588,0.833
1.589,0.833
1.59,0.826
1.591,0.83
1.592,0.836
1.593,0.846
1.594,0.849
1.595,0.853
1.596,0.866
1.597,0.859
1.598,0.866
1.599,0.879
1.6,0.872
1.601,0.872
1.602,0.882
1.603,0.889
1.604,0.882
1.605,0.892
1.606,0.912
1.607,0.905
1.608,0.912
1.609,0.918
1.61,0.925
1.611,0.931
1.612,0.915
1.613,0.915
1.614,0.905
1.615,0.905
1.616,0.921
1.617,0.892
1.618,0.886
1.619,0.895
1.62,0.908
1.621,0.895
1.622,0.908
1.623,0.905
1.624,0.915
1.625,0.931
1.626,0.944
1.627,0.945
1.628,0.932
1.629,0.931
1.63,0.938
1.631,0.915
1.632,0.909
1.633,0.918
1.634,0.896
1.635,0.882
1.636,0.895
1.637,0.905
1.638,0.892
1.639,0.892
1.64,0.882
1.641,0.866
1.642,0.849
1.643,0.833
1.644,0.836
1.645,0.83
1.646,0.81
1.647,0.807
1.648,0.807
1.649,0.8
1.65,0.787
1.651,0.784
1.652,0.787
1.653,0.787
1.654,0.79
1.655,0.767
1.656,0.774
1.657,0.771
1.658,0.764
1.659,0.751
1.66,0.748
1.661,0.76
1.662,0.761
1.663,0.741
1.664,0.738
1.665,0.728
1.666,0.731
1.667,0.747
1.668,0.728
1.669,0.715
1.67,0.724
1.671,0.724
1.672,0.718
1.673,0.724
1.674,0.718
1.675,0.711
1.676,0.718
1.677,0.731
1.678,0.725
1.679,0.724
1.68,0.731
1.681,0.715
1.682,0.721
1.683,0.715
1.684,0.721
1.685,0.718
1.686,0.715
1.687,0.721
1.688,0.721
1.689,0.705
1.69,0.711
1.691,0.711
1.692,0.718
1.693,0.708
1.694,0.705
1.695,0.708
1.696,0.718
1.697,0.715
1.698,0.711
1.699,0.718
1.7,0.715
1.701,0.724
1.702,0.721
1.703,0.711
1.704,0.724
1.705,0.731
1.706,0.715
1.707,0.721
1.708,0.721
1.709,0.728
1.71,0.725
1.711,0.728
1.712,0.721
1.713,0.724
1.714,0.718
1.715,0.715
1.716,0.728
1.717,0.721
1.718,0.734
1.719,0.718
1.72,0.721
1.721,0.728
1.722,0.751
1.723,0.735
1.724,0.731
1.725,0.738
1.726,0.744
1.727,0.747
1.728,0.76
1.729,0.78
1.73,0.78
1.731,0.806
1.732,0.836
1.733,0.856
1.734,0.905
1.735,0.925
1.736,0.941
1.737,0.961
1.738,0.987
1.739,1
1.74,1.013
1.741,1.053
1.742,1.079
1.743,1.076
1.744,1.073
1.745,1.076
1.746,1.089
1.747,1.083
1.748,1.053
1.749,1.007
1.75,0.968
1.751,0.925
1.752,0.866
1.753,0.807
1.754,0.722
1.755,0.695
1.756,0.64
1.757,0.584
1.758,0.528
1.759,0.469
1.76,0.377
1.761,0.318
1.762,0.298
1.763,0.301
1.764,0.291
1.765,0.301
1.766,0.271
1.767,0.216
1.768,0.183
1.769,0.156
1.77,0.12
1.771,0.081
1.772,0.045
1.773,0.028
1.774,0.038
1.775,0.067
1.776,0.103
1.777,0.139
1.778,0.182
1.779,0.241
1.78,0.29
1.781,0.32
1.782,0.343
1.783,0.379
1.784,0.419
1.785,0.445
1.786,0.474
1.787,0.475
1.788,0.494
1.789,0.527
1.79,0.55
1.791,0.563
1.792,0.596
1.793,0.626
1.794,0.645
1.795,0.652
1.796,0.685
1.797,0.698
1.798,0.705
1.799,0.728
1.8,0.731
1.801,0.757
1.802,0.764
1.803,0.783
1.804,0.793
1.805,0.787
1.806,0.803
1.807,0.816
1.808,0.807
1.809,0.8
1.81,0.813
1.811,0.813
1.812,0.81
1.813,0.816
1.814,0.813
1.815,0.813
1.816,0.807
1.817,0.813
1.818,0.826
1.819,0.833
1.82,0.83
1.821,0.83
1.822,0.826
1.823,0.839
1.824,0.856
1.825,0.846
1.826,0.836
1.827,0.846
1.828,0.849
1.829,0.843
1.83,0.846
1.831,0.853
1.832,0.849
1.833,0.849
1.834,0.84
1.835,0.843
1.836,0.853
1.837,0.859
1.838,0.843
1.839,0.833
1.84,0.856
1.841,0.856
1.842,0.853
1.843,0.859
1.844,0.869
1.845,0.859
1.846,0.859
1.847,0.859
1.848,0.866
1.849,0.856
1.85,0.856
1.851,0.853
1.852,0.853
1.853,0.856
1.854,0.872
1.855,0.859
1.856,0.859
1.857,0.869
1.858,0.866
1.859,0.856
1.86,0.859
1.861,0.869
1.862,0.863
1.863,0.875
1.864,0.872
1.865,0.869
1.866,0.879
1.867,0.879
1.868,0.869
1.869,0.866
1.87,0.859
1.871,0.885
1.872,0.869
1.873,0.863
1.874,0.885
1.875,0.872
1.876,0.859
1.877,0.859
1.878,0.872
1.879,0.879
1.88,0.882
1.881,0.885
1.882,0.882
1.883,0.879
1.884,0.889
1.885,0.885
1.886,0.879
1.887,0.885
1.888,0.902
1.889,0.879
1.89,0.876
1.891,0.892
1.892,0.886
1.893,0.882
1.894,0.879
1.895,0.889
1.896,0.885
1.897,0.898
1.898,0.895
1.899,0.895
1.9,0.889
1.901,0.902
1.902,0.902
1.903,0.905
1.904,0.905
1.905,0.915
1.906,0.909
1.907,0.899
1.908,0.908
1.909,0.905
1.91,0.899
1.911,0.908
1.912,0.905
1.913,0.899
1.914,0.905
1.915,0.902
1.916,0.908
1.917,0.908
1.918,0.912
1.919,0.915
1.92,0.909
1.921,0.912
1.922,0.925
1.923,0.909
1.924,0.908
1.925,0.931
1.926,0.922
1.927,0.912
1.928,0.922
1.929,0.925
1.93,0.931
1.931,0.931
1.932,0.922
1.933,0.928
1.934,0.925
1.935,0.935
1.936,0.925
1.937,0.928
1.938,0.922
1.939,0.938
1.94,0.941
1.941,0.932
1.942,0.941
1.943,0.951
1.944,0.935
1.945,0.945
1.946,0.945
1.947,0.935
1.948,0.938
1.949,0.938
1.95,0.935
1.951,0.935
1.952,0.935
1.953,0.938
1.954,0.938
1.955,0.938
1.956,0.941
1.957,0.932
1.958,0.925
1.959,0.935
1.96,0.938
1.961,0.932
1.962,0.938
1.963,0.954
1.964,0.935
1.965,0.935
1.966,0.935
1.967,0.945
1.968,0.938
1.969,0.945
1.97,0.932
1.971,0.935
1.972,0.925
1.973,0.944
1.974,0.941
1.975,0.922
1.976,0.941
1.977,0.938
1.978,0.922
1.979,0.935
1.98,0.941
1.981,0.938
1.982,0.945
1.983,0.932
1.984,0.938
1.985,0.945
1.986,0.958
1.987,0.945
1.988,0.925
1.989,0.944
1.99,0.948
1.991,0.938
1.992,0.941
1.993,0.941
1.994,0.928
1.995,0.928
1.996,0.935
1.997,0.948
1.998,0.938
1.999,0.935
2,0.931
2.001,0.938
2.002,0.938
2.003,0.948
2.004,0.935
2.005,0.935
2.006,0.958
2.007,0.938
2.008,0.932
2.009,0.941
2.01,0.932
2.011,0.938
2.012,0.925
2.013,0.931
2.014,0.935
2.015,0.935
2.016,0.948
2.017,0.945
2.018,0.938
2.019,0.941
2.02,0.954
2.021,0.945
2.022,0.932
2.023,0.948
2.024,0.945
2.025,0.938
2.026,0.954
2.027,0.951
2.028,0.954
2.029,0.951
2.03,0.948
2.031,0.951
2.032,0.945
2.033,0.951
2.034,0.954
2.035,0.945
2.036,0.958
2.037,0.961
2.038,0.948
2.039,0.951
2.04,0.967
2.041,0.961
2.042,0.961
2.043,0.971
2.044,0.971
2.045,0.971
2.046,0.961
2.047,0.964
2.048,0.968
2.049,0.968
2.05,0.968
2.051,0.958
2.052,0.954
2.053,0.958
2.054,0.968
2.055,0.951
2.056,0.938
2.057,0.945
2.058,0.948
2.059,0.954
2.06,0.958
2.061,0.961
2.062,0.948
2.063,0.945
2.064,0.948
2.065,0.945
2.066,0.941
2.067,0.951
2.068,0.935
2.069,0.928
2.07,0.938
2.071,0.932
2.072,0.915
2.073,0.918
2.074,0.922
2.075,0.918
2.076,0.905
2.077,0.902
2.078,0.908
2.079,0.899
2.08,0.899
2.081,0.895
2.082,0.889
2.083,0.895
2.084,0.895
2.085,0.886
2.086,0.876
2.087,0.898
2.088,0.886
2.089,0.876
2.09,0.879
2.091,0.879
2.092,0.885
2.093,0.869
2.094,0.856
2.095,0.869
2.096,0.866
2.097,0.872
2.098,0.859
2.099,0.856
2.1,0.859
2.101,0.872
2.102,0.863
2.103,0.856
2.104,0.866
2.105,0.869
2.106,0.859
2.107,0.856
2.108,0.869
2.109,0.866
2.11,0.856
2.111,0.853
2.112,0.859
2.113,0.859
2.114,0.875
2.115,0.853
2.116,0.846
2.117,0.866
2.118,0.882
2.119,0.856
2.12,0.849
2.121,0.869
2.122,0.872
2.123,0.856
2.124,0.862
2.125,0.869
2.126,0.866
2.127,0.879
2.128,0.856
2.129,0.862
2.13,0.872
2.131,0.872
2.132,0.853
2.133,0.853
2.134,0.869
2.135,0.872
2.136,0.866
2.137,0.866
2.138,0.872
2.139,0.872
2.14,0.853
2.141,0.869
2.142,0.869
2.143,0.872
2.144,0.876
2.145,0.882
2.146,0.882
2.147,0.879
2.148,0.892
2.149,0.882
2.15,0.882
2.151,0.879
2.152,0.889
2.153,0.872
2.154,0.869
2.155,0.882
2.156,0.889
2.157,0.872
2.158,0.885
2.159,0.879
2.16,0.879
2.161,0.889
2.162,0.885
2.163,0.892
2.164,0.899
2.165,0.902
2.166,0.889
2.167,0.882
2.168,0.889
2.169,0.905
2.17,0.889
2.171,0.892
2.172,0.902
2.173,0.895
2.174,0.892
2.175,0.882
2.176,0.895
2.177,0.882
2.178,0.889
2.179,0.889
2.18,0.892
2.181,0.899
2.182,0.905
2.183,0.895
2.184,0.879
2.185,0.898
2.186,0.899
2.187,0.892
2.188,0.899
2.189,0.902
2.19,0.899
2.191,0.895
2.192,0.892
2.193,0.902
2.194,0.902
2.195,0.895
2.196,0.886
2.197,0.882
2.198,0.902
2.199,0.908
2.2,0.899
2.201,0.892
2.202,0.905
2.203,0.905
2.204,0.899
2.205,0.905
2.206,0.908
2.207,0.899
2.208,0.895
2.209,0.895
2.21,0.905
2.211,0.899
2.212,0.892
2.213,0.889
2.214,0.892
2.215,0.902
2.216,0.915
2.217,0.886
2.218,0.872
2.219,0.892
2.22,0.895
2.221,0.882
2.222,0.885
2.223,0.898
2.224,0.889
2.225,0.895
2.226,0.892
2.227,0.902
2.228,0.886
2.229,0.892
2.23,0.879
2.231,0.879
2.232,0.882
2.233,0.892
2.234,0.879
2.235,0.879
2.236,0.882
2.237,0.882
2.238,0.879
2.239,0.879
2.24,0.885
2.241,0.885
2.242,0.882
2.243,0.879
2.244,0.885
2.245,0.885
2.246,0.895
2.247,0.873
2.248,0.866
2.249,0.876
2.25,0.879
2.251,0.866
2.252,0.866
2.253,0.872
2.254,0.879
2.255,0.866
2.256,0.866
2.257,0.872
2.258,0.872
2.259,0.872
2.26,0.872
2.261,0.863
2.262,0.879
2.263,0.885
2.264,0.879
2.265,0.879
2.266,0.879
2.267,0.869
2.268,0.869
2.269,0.879
2.27,0.885
2.271,0.869
2.272,0.859
2.273,0.859
2.274,0.869
2.275,0.866
2.276,0.856
2.277,0.856
2.278,0.859
2.279,0.862
2.28,0.879
2.281,0.866
2.282,0.853
2.283,0.869
2.284,0.866
2.285,0.872
2.286,0.869
2.287,0.876
2.288,0.869
2.289,0.863
2.29,0.853
2.291,0.859
2.292,0.869
2.293,0.863
2.294,0.849
2.295,0.849
2.296,0.859
2.297,0.869
2.298,0.859
2.299,0.843
2.3,0.872
2.301,0.869
2.302,0.856
2.303,0.862
2.304,0.875
2.305,0.869
2.306,0.863
2.307,0.869
2.308,0.863
2.309,0.872
2.31,0.863
2.311,0.849
2.312,0.853
2.313,0.859
2.314,0.866
2.315,0.856
2.316,0.836
2.317,0.852
2.318,0.866
2.319,0.856
2.32,0.853
2.321,0.856
2.322,0.859
2.323,0.846
2.324,0.856
2.325,0.866
2.326,0.859
2.327,0.862
2.328,0.849
2.329,0.846
2.33,0.856
2.331,0.849
2.332,0.853
2.333,0.83
2.334,0.849
2.335,0.849
2.336,0.843
2.337,0.846
2.338,0.843
2.339,0.846
2.34,0.853
2.341,0.849
2.342,0.849
2.343,0.849
2.344,0.849
2.345,0.846
2.346,0.84
2.347,0.852
2.348,0.866
2.349,0.849
2.35,0.84
2.351,0.856
2.352,0.849
2.353,0.836
2.354,0.846
2.355,0.84
2.356,0.839
2.357,0.836
2.358,0.839
2.359,0.839
2.36,0.849
2.361,0.859
2.362,0.853
2.363,0.84
2.364,0.859
2.365,0.859
2.366,0.846
2.367,0.843
2.368,0.846
2.369,0.862
2.37,0.843
2.371,0.843
2.372,0.846
2.373,0.853
2.374,0.846
2.375,0.846
2.376,0.853
2.377,0.846
2.378,0.856
2.379,0.849
2.38,0.853
2.381,0.856
2.382,0.859
2.383,0.853
2.384,0.843
2.385,0.853
2.386,0.853
2.387,0.849
2.388,0.843
2.389,0.853
2.39,0.84
2.391,0.843
2.392,0.849
2.393,0.849
2.394,0.853
2.395,0.84
2.396,0.833
2.397,0.846
2.398,0.84
2.399,0.843
2.4,0.839
2.401,0.839
2.402,0.849
2.403,0.866
2.404,0.853
2.405,0.84
2.406,0.852
2.407,0.853
2.408,0.84
2.409,0.849
2.41,0.849
2.411,0.846
2.412,0.83
2.413,0.846
2.414,0.849
2.415,0.843
2.416,0.839
2.417,0.839
2.418,0.833
2.419,0.859
2.42,0.859
2.421,0.853
2.422,0.856
2.423,0.866
2.424,0.866
2.425,0.869
2.426,0.872
2.427,0.882
2.428,0.879
2.429,0.882
2.43,0.889
2.431,0.899
2.432,0.905
2.433,0.905
2.434,0.908
2.435,0.905
2.436,0.915
2.437,0.922
2.438,0.928
2.439,0.931
2.44,0.938
2.441,0.932
2.442,0.941
2.443,0.935
2.444,0.961
2.445,0.964
2.446,0.955
2.447,0.961
2.448,0.964
2.449,0.961
2.45,0.971
2.451,0.981
2.452,0.981
2.453,0.984
2.454,0.994
2.455,0.994
2.456,0.974
2.457,1
2.458,1.01
2.459,0.997
2.46,1.01
2.461,1.02
2.462,1.014
2.463,1.004
2.464,1
2.465,0.994
2.466,0.991
2.467,0.997
2.468,0.994
2.469,0.991
2.47,0.997
2.471,1.017
2.472,1.001
2.473,0.994
2.474,1.023
2.475,1.02
2.476,1.01
2.477,1.017
2.478,1.014
2.479,1.01
2.48,1.004
2.481,1
2.482,1
2.483,0.991
2.484,0.997
2.485,0.987
2.486,0.984
2.487,0.978
2.488,0.974
2.489,0.945
2.49,0.925
2.491,0.931
2.492,0.931
2.493,0.905
2.494,0.908
2.495,0.899
2.496,0.886
2.497,0.869
2.498,0.879
2.499,0.882
2.5,0.872
2.501,0.879
2.502,0.876
2.503,0.876
2.504,0.872
2.505,0.866
2.506,0.853
2.507,0.84
2.508,0.839
2.509,0.846
2.51,0.84
2.511,0.839
2.512,0.833
2.513,0.817
2.514,0.813
2.515,0.816
2.516,0.813
2.517,0.813
2.518,0.816
2.519,0.8
2.52,0.807
2.521,0.816
2.522,0.823
2.523,0.807
2.524,0.797
2.525,0.81
2.526,0.816
2.527,0.81
2.528,0.813
2.529,0.813
2.53,0.81
2.531,0.807
2.532,0.813
2.533,0.807
2.534,0.807
2.535,0.807
2.536,0.8
2.537,0.794
2.538,0.8
2.539,0.813
2.54,0.8
2.541,0.794
2.542,0.806
2.543,0.8
2.544,0.794
2.545,0.803
2.546,0.807
2.547,0.807
2.548,0.803
2.549,0.797
2.55,0.813
2.551,0.8
2.552,0.81
2.553,0.8
2.554,0.787
2.555,0.8
2.556,0.816
2.557,0.8
2.558,0.8
2.559,0.813
2.56,0.8
2.561,0.813
2.562,0.82
2.563,0.813
2.564,0.813
2.565,0.816
2.566,0.813
2.567,0.816
2.568,0.82
2.569,0.833
2.57,0.82
2.571,0.807
2.572,0.807
2.573,0.82
2.574,0.83
2.575,0.833
2.576,0.846
2.577,0.853
2.578,0.859
2.579,0.898
2.58,0.925
2.581,0.951
2.582,0.977
2.583,0.997
2.584,1.039
2.585,1.063
2.586,1.089
2.587,1.083
2.588,1.102
2.589,1.141
2.59,1.161
2.591,1.155
2.592,1.142
2.593,1.158
2.594,1.171
2.595,1.184
2.596,1.158
2.597,1.142
2.598,1.106
2.599,1.07
2.6,1.027
2.601,0.958
2.602,0.915
2.603,0.856
2.604,0.775
2.605,0.689
2.606,0.63
2.607,0.558
2.608,0.463
2.609,0.393
2.61,0.363
2.611,0.318
2.612,0.285
2.613,0.261
2.614,0.203
2.615,0.153
2.616,0.127
2.617,0.117
2.618,0.081
2.619,0.071
2.62,0.077
2.621,0.045
2.622,0.041
2.623,0.08
2.624,0.11
2.625,0.156
2.626,0.198
2.627,0.264
2.628,0.304
2.629,0.353
2.63,0.382
2.631,0.419
2.632,0.451
2.633,0.484
2.634,0.504
2.635,0.524
2.636,0.563
2.637,0.599
2.638,0.616
2.639,0.642
2.64,0.668
2.641,0.691
2.642,0.711
2.643,0.747
2.644,0.757
2.645,0.777
2.646,0.79
2.647,0.806
2.648,0.82
2.649,0.836
2.65,0.849
2.651,0.856
2.652,0.853
2.653,0.866
2.654,0.885
2.655,0.869
2.656,0.879
2.657,0.889
2.658,0.889
2.659,0.882
2.66,0.885
2.661,0.889
2.662,0.895
2.663,0.892
2.664,0.899
2.665,0.895
2.666,0.899
2.667,0.902
2.668,0.895
2.669,0.892
2.67,0.899
2.671,0.905
2.672,0.895
2.673,0.899
2.674,0.918
2.675,0.905
2.676,0.905
2.677,0.895
2.678,0.912
2.679,0.908
2.68,0.899
2.681,0.915
2.682,0.918
2.683,0.915
2.684,0.931
2.685,0.912
2.686,0.905
2.687,0.912
2.688,0.931
2.689,0.915
2.69,0.912
2.691,0.918
2.692,0.909
2.693,0.912
2.694,0.915
2.695,0.925
2.696,0.912
2.697,0.922
2.698,0.912
2.699,0.918
2.7,0.922
2.701,0.938
2.702,0.928
2.703,0.925
2.704,0.938
2.705,0.948
2.706,0.922
2.707,0.928
2.708,0.941
2.709,0.935
2.71,0.931
2.711,0.928
2.712,0.941
2.713,0.932
2.714,0.931
2.715,0.925
2.716,0.935
2.717,0.931
2.718,0.938
2.719,0.932
2.72,0.922
2.721,0.935
2.722,0.948
2.723,0.925
2.724,0.931
2.725,0.948
2.726,0.941
2.727,0.938
2.728,0.941
2.729,0.945
2.73,0.948
2.731,0.948
2.732,0.938
2.733,0.938
2.734,0.951
2.735,0.964
2.736,0.945
2.737,0.938
2.738,0.958
2.739,0.948
2.74,0.941
2.741,0.941
2.742,0.961
2.743,0.958
2.744,0.951
2.745,0.958
2.746,0.958
2.747,0.958
2.748,0.968
2.749,0.964
2.75,0.955
2.751,0.951
2.752,0.964
2.753,0.958
2.754,0.951
2.755,0.964
2.756,0.964
2.757,0.958
2.758,0.968
2.759,0.964
2.76,0.971
2.761,0.961
2.762,0.968
2.763,0.971
2.764,0.968
2.765,0.977
2.766,0.974
2.767,0.971
2.768,0.977
2.769,0.984
2.77,0.958
2.771,0.968
2.772,0.974
2.773,0.971
2.774,0.958
2.775,0.964
2.776,0.971
2.777,0.968
2.778,0.971
2.779,0.977
2.78,0.981
2.781,0.981
2.782,0.977
2.783,0.977
2.784,0.977
2.785,0.984
2.786,0.994
2.787,0.984
2.788,0.974
2.789,0.987
2.79,0.987
2.791,0.981
2.792,0.987
2.793,0.991
2.794,0.984
2.795,0.984
2.796,0.978
2.797,0.994
2.798,0.997
2.799,0.994
2.8,0.991
2.801,0.987
2.802,1
2.803,1
2.804,0.994
2.805,0.997
2.806,0.997
2.807,1.013
2.808,0.997
2.809,1.004
2.81,1.007
2.811,1.004
2.812,0.987
2.813,0.994
2.814,1.004
2.815,0.994
2.816,0.997
2.817,1
2.818,0.994
2.819,0.991
2.82,1.004
2.821,1
2.822,1.004
2.823,1.007
2.824,1.027
2.825,1.01
2.826,1.007
2.827,1.01
2.828,1.007
2.829,0.997
2.83,1
2.831,1.004
2.832,0.997
2.833,1
2.834,0.997
2.835,1.004
2.836,1
2.837,1.01
2.838,0.991
2.839,0.991
2.84,1.004
2.841,1.023
2.842,1.001
2.843,0.997
2.844,1.013
2.845,1.017
2.846,1.004
2.847,1.017
2.848,1.023
2.849,1.01
2.85,1.004
2.851,0.994
2.852,1.01
2.853,1.01
2.854,1.017
2.855,1.014
2.856,1.004
2.857,1.004
2.858,1.02
2.859,1.007
2.86,0.994
2.861,1.01
2.862,1.014
2.863,1.014
2.864,1.014
2.865,1.017
2.866,1.014
2.867,1.014
2.868,1.017
2.869,1.023
2.87,1.02
2.871,1.02
2.872,1.01
2.873,1.007
2.874,1.017
2.875,1.023
2.876,1.017
2.877,1.01
2.878,1.023
2.879,1.03
2.88,1.011
2.881,1.02
2.882,1.03
2.883,1.03
2.884,1.024
2.885,1.027
2.886,1.033
2.887,1.027
2.888,1.023
2.889,1.023
2.89,1.02
2.891,1.023
2.892,1.03
2.893,1.02
2.894,1.02
2.895,1.03
2.896,1.03
2.897,1.017
2.898,1.02
2.899,1.02
2.9,1.014
2.901,1.01
2.902,1.01
2.903,1.023
2.904,1.017
2.905,1.014
2.906,1.014
2.907,1.004
2.908,1.01
2.909,1.014
2.91,0.991
2.911,0.987
2.912,0.997
2.913,1
2.914,0.978
2.915,0.987
2.916,0.984
2.917,0.981
2.918,0.974
2.919,0.974
2.92,0.971
2.921,0.974
2.922,0.984
2.923,0.978
2.924,0.961
2.925,0.971
2.926,0.977
2.927,0.948
2.928,0.935
2.929,0.951
2.93,0.948
2.931,0.945
2.932,0.935
2.933,0.945
2.934,0.935
2.935,0.931
2.936,0.931
2.937,0.928
2.938,0.922
2.939,0.922
2.94,0.918
2.941,0.928
2.942,0.928
2.943,0.935
2.944,0.922
2.945,0.912
2.946,0.931
2.947,0.925
2.948,0.912
2.949,0.908
2.95,0.905
2.951,0.905
2.952,0.899
2.953,0.908
2.954,0.915
2.955,0.905
2.956,0.905
2.957,0.908
2.958,0.902
2.959,0.902
2.96,0.915
2.961,0.902
2.962,0.892
2.963,0.912
2.964,0.918
2.965,0.915
2.966,0.918
2.967,0.909
2.968,0.905
2.969,0.908
2.97,0.902
2.971,0.905
2.972,0.902
2.973,0.915
2.974,0.899
2.975,0.899
2.976,0.899
2.977,0.918
2.978,0.899
2.979,0.892
2.98,0.912
2.981,0.918
2.982,0.905
2.983,0.905
2.984,0.912
2.985,0.905
2.986,0.902
2.987,0.912
2.988,0.895
2.989,0.902
2.99,0.915
2.991,0.918
2.992,0.915
2.993,0.909
2.994,0.912
2.995,0.905
2.996,0.912
2.997,0.918
2.998,0.912
2.999,0.912
3,0.922
3.001,0.931
3.002,0.925
3.003,0.912
3.004,0.912
3.005,0.931
3.006,0.922
3.007,0.925
3.008,0.925
3.009,0.931
3.01,0.928
3.011,0.918
3.012,0.918
3.013,0.922
3.014,0.918
3.015,0.918
3.016,0.922
3.017,0.918
3.018,0.931
3.019,0.931
3.02,0.922
3.021,0.922
3.022,0.944
3.023,0.941
3.024,0.912
3.025,0.931
3.026,0.938
3.027,0.932
3.028,0.925
3.029,0.931
3.03,0.935
3.031,0.922
3.032,0.928
3.033,0.925
3.034,0.935
3.035,0.931
3.036,0.928
3.037,0.918
3.038,0.918
3.039,0.935
3.04,0.938
3.041,0.919
3.042,0.918
3.043,0.941
3.044,0.932
3.045,0.931
3.046,0.931
3.047,0.944
3.048,0.928
3.049,0.931
3.05,0.935
3.051,0.931
3.052,0.935
3.053,0.941
3.054,0.932
3.055,0.918
3.056,0.922
3.057,0.925
3.058,0.922
3.059,0.918
3.06,0.922
3.061,0.928
3.062,0.922
3.063,0.928
3.064,0.935
3.065,0.931
3.066,0.941
3.067,0.922
3.068,0.915
3.069,0.931
3.07,0.938
3.071,0.919
3.072,0.912
3.073,0.922
3.074,0.918
3.075,0.915
3.076,0.922
3.077,0.918
3.078,0.912
3.079,0.918
3.08,0.918
3.081,0.922
3.082,0.915
3.083,0.928
3.084,0.912
3.085,0.912
3.086,0.918
3.087,0.931
3.088,0.912
3.089,0.908
3.09,0.918
3.091,0.902
3.092,0.902
3.093,0.915
3.094,0.918
3.095,0.915
3.096,0.909
3.097,0.905
3.098,0.912
3.099,0.902
3.1,0.912
3.101,0.899
3.102,0.902
3.103,0.908
3.104,0.918
3.105,0.905
3.106,0.908
3.107,0.912
3.108,0.908
3.109,0.905
3.11,0.908
3.111,0.905
3.112,0.902
3.113,0.905
3.114,0.905
3.115,0.902
3.116,0.902
3.117,0.902
3.118,0.899
3.119,0.895
3.12,0.902
3.121,0.912
3.122,0.899
3.123,0.886
3.124,0.902
3.125,0.912
3.126,0.895
3.127,0.912
3.128,0.905
3.129,0.899
3.13,0.899
3.131,0.895
3.132,0.899
3.133,0.905
3.134,0.902
3.135,0.882
3.136,0.892
3.137,0.899
3.138,0.902
3.139,0.895
3.14,0.889
3.141,0.895
3.142,0.902
3.143,0.895
3.144,0.902
3.145,0.905
3.146,0.905
3.147,0.895
3.148,0.899
3.149,0.908
3.15,0.895
3.151,0.895
3.152,0.892
3.153,0.889
3.154,0.899
3.155,0.895
3.156,0.886
3.157,0.882
3.158,0.889
3.159,0.905
3.16,0.889
3.161,0.899
3.162,0.899
3.163,0.892
3.164,0.886
3.165,0.889
3.166,0.892
3.167,0.892
3.168,0.882
3.169,0.885
3.17,0.879
3.171,0.882
3.172,0.895
3.173,0.879
3.174,0.876
3.175,0.889
3.176,0.895
3.177,0.879
3.178,0.876
3.179,0.882
3.18,0.879
3.181,0.879
3.182,0.879
3.183,0.885
3.184,0.885
3.185,0.882
3.186,0.885
3.187,0.892
3.188,0.886
3.189,0.892
3.19,0.882
3.191,0.866
3.192,0.882
3.193,0.895
3.194,0.876
3.195,0.872
3.196,0.879
3.197,0.879
3.198,0.863
3.199,0.885
3.2,0.882
3.201,0.879
3.202,0.876
3.203,0.885
3.204,0.882
3.205,0.889
3.206,0.882
3.207,0.882
3.208,0.882
3.209,0.895
3.21,0.895
3.211,0.876
3.212,0.876
3.213,0.879
3.214,0.895
3.215,0.876
3.216,0.866
3.217,0.882
3.218,0.889
3.219,0.876
3.22,0.885
3.221,0.889
3.222,0.889
3.223,0.885
3.224,0.889
3.225,0.892
3.226,0.889
3.227,0.895
3.228,0.876
3.229,0.889
3.23,0.892
3.231,0.889
3.232,0.885
3.233,0.869
3.234,0.885
3.235,0.889
3.236,0.879
3.237,0.876
3.238,0.882
3.239,0.882
3.24,0.879
3.241,0.885
3.242,0.898
3.243,0.892
3.244,0.895
3.245,0.886
3.246,0.902
3.247,0.892
3.248,0.899
3.249,0.889
3.25,0.882
3.251,0.892
3.252,0.889
3.253,0.879
3.254,0.879
3.255,0.892
3.256,0.882
3.257,0.885
3.258,0.889
3.259,0.885
3.26,0.892
3.261,0.892
3.262,0.895
3.263,0.892
3.264,0.892
3.265,0.899
3.266,0.892
3.267,0.892
3.268,0.899
3.269,0.908
3.27,0.899
3.271,0.892
3.272,0.905
3.273,0.905
3.274,0.905
3.275,0.912
3.276,0.925
3.277,0.915
3.278,0.922
3.279,0.922
3.28,0.938
3.281,0.948
3.282,0.948
3.283,0.945
3.284,0.958
3.285,0.968
3.286,0.994
3.287,0.974
3.288,0.964
3.289,0.984
3.29,0.994
3.291,0.984
3.292,0.994
3.293,1.007
3.294,1.001
3.295,1
3.296,1.004
3.297,1.007
3.298,1.004
3.299,1.017
3.3,1.03
3.301,1.03
3.302,1.024
3.303,1.033
3.304,1.027
3.305,1.05
3.306,1.063
3.307,1.073
3.308,1.053
3.309,1.047
3.31,1.059
3.311,1.05
3.312,1.04
3.313,1.03
3.314,1.024
3.315,1.023
3.316,1.023
3.317,1.027
3.318,1.027
3.319,1.037
3.32,1.046
3.321,1.046
3.322,1.056
3.323,1.06
3.324,1.069
3.325,1.053
3.326,1.05
3.327,1.05
3.328,1.056
3.329,1.034
3.33,1.027
3.331,1.037
3.332,1.03
3.333,1.017
3.334,1.014
3.335,1.014
3.336,0.997
3.337,0.978
3.338,0.971
3.339,0.964
3.34,0.958
3.341,0.958
3.342,0.945
3.343,0.928
3.344,0.935
3.345,0.931
3.346,0.915
3.347,0.905
3.348,0.908
3.349,0.915
3.35,0.912
3.351,0.905
3.352,0.905
3.353,0.892
3.354,0.879
3.355,0.879
3.356,0.879
3.357,0.863
3.358,0.866
3.359,0.869
3.36,0.859
3.361,0.862
3.362,0.859
3.363,0.846
3.364,0.84
3.365,0.843
3.366,0.843
3.367,0.839
3.368,0.849
3.369,0.846
3.37,0.843
3.371,0.839
3.372,0.833
3.373,0.839
3.374,0.839
3.375,0.839
3.376,0.836
3.377,0.83
3.378,0.833
3.379,0.839
3.38,0.826
3.381,0.823
3.382,0.839
3.383,0.843
3.384,0.83
3.385,0.826
3.386,0.839
3.387,0.839
3.388,0.833
3.389,0.846
3.39,0.84
3.391,0.836
3.392,0.826
3.393,0.826
3.394,0.83
3.395,0.836
3.396,0.83
3.397,0.823
3.398,0.826
3.399,0.836
3.4,0.846
3.401,0.833
3.402,0.83
3.403,0.843
3.404,0.849
3.405,0.846
3.406,0.849
3.407,0.853
3.408,0.849
3.409,0.843
3.41,0.846
3.411,0.846
3.412,0.84
3.413,0.849
3.414,0.836
3.415,0.839
3.416,0.846
3.417,0.853
3.418,0.843
3.419,0.83
3.42,0.849
3.421,0.849
3.422,0.846
3.423,0.859
3.424,0.882
3.425,0.889
3.426,0.902
3.427,0.921
3.428,0.944
3.429,0.98
3.43,1.01
3.431,1.03
3.432,1.046
3.433,1.085
3.434,1.105
3.435,1.106
3.436,1.115
3.437,1.167
3.438,1.175
3.439,1.168
3.44,1.171
3.441,1.184
3.442,1.197
3.443,1.204
3.444,1.188
3.445,1.162
3.446,1.132
3.447,1.109
3.448,1.06
3.449,0.985
3.45,0.952
3.451,0.893
3.452,0.817
3.453,0.738
3.454,0.682
3.455,0.613
3.456,0.518
3.457,0.452
3.458,0.423
3.459,0.38
3.46,0.334
3.461,0.307
3.462,0.239
3.463,0.209
3.464,0.179
3.465,0.16
3.466,0.14
3.467,0.094
3.468,0.1
3.469,0.071
3.47,0.074
3.471,0.11
3.472,0.136
3.473,0.175
3.474,0.231
3.475,0.293
3.476,0.349
3.477,0.386
3.478,0.422
3.479,0.468
3.48,0.484
3.481,0.514
3.482,0.543
3.483,0.567
3.484,0.599
3.485,0.632
3.486,0.649
3.487,0.685
3.488,0.711
3.489,0.741
3.49,0.751
3.491,0.757
3.492,0.783
3.493,0.806
3.494,0.813
3.495,0.823
3.496,0.846
3.497,0.862
3.498,0.862
3.499,0.872
3.5,0.885
3.501,0.889
3.502,0.895
3.503,0.899
3.504,0.912
3.505,0.902
3.506,0.915
3.507,0.909
3.508,0.899
3.509,0.918
3.51,0.915
3.511,0.912
3.512,0.899
3.513,0.918
3.514,0.922
3.515,0.909
3.516,0.921
3.517,0.918
3.518,0.915
3.519,0.918
3.52,0.925
3.521,0.931
3.522,0.922
3.523,0.938
3.524,0.928
3.525,0.938
3.526,0.935
3.527,0.948
3.528,0.928
3.529,0.928
3.53,0.944
3.531,0.945
3.532,0.938
3.533,0.935
3.534,0.938
3.535,0.941
3.536,0.925
3.537,0.931
3.538,0.938
3.539,0.932
3.54,0.941
3.541,0.945
3.542,0.945
3.543,0.945
3.544,0.951
3.545,0.945
3.546,0.941
3.547,0.951
3.548,0.964
3.549,0.938
3.55,0.938
3.551,0.945
3.552,0.948
3.553,0.954
3.554,0.958
3.555,0.958
3.556,0.948
3.557,0.954
3.558,0.951
3.559,0.964
3.56,0.955
3.561,0.977
3.562,0.961
3.563,0.958
3.564,0.961
3.565,0.977
3.566,0.964
3.567,0.968
3.568,0.968
3.569,0.964
3.57,0.961
3.571,0.961
3.572,0.971
3.573,0.968
3.574,0.955
3.575,0.961
3.576,0.961
3.577,0.961
3.578,0.974
3.579,0.971
3.58,0.961
3.581,0.981
3.582,0.991
3.583,0.971
3.584,0.971
3.585,0.987
3.586,0.991
3.587,0.971
3.588,0.987
3.589,0.984
3.59,0.984
3.591,0.978
3.592,0.977
3.593,0.987
3.594,0.984
3.595,0.991
3.596,0.971
3.597,0.971
3.598,0.987
3.599,0.994
3.6,0.984
3.601,0.981
3.602,0.991
3.603,0.997
3.604,0.991
3.605,0.991
3.606,1
3.607,0.987
3.608,0.981
3.609,0.991
3.61,0.997
3.611,0.997
3.612,0.984
3.613,0.994
3.614,0.991
3.615,0.987
3.616,1
3.617,0.987
3.618,0.987
3.619,1.004
3.62,1.004
3.621,0.994
3.622,0.987
3.623,1.007
3.624,0.997
3.625,0.997
3.626,1.007
3.627,1.01
3.628,1.01
3.629,1.01
3.63,1.007
3.631,0.997
3.632,1.004
3.633,1.02
3.634,1.007
3.635,0.991
3.636,1.004
3.637,1.01
3.638,1.004
3.639,1.004
3.64,1.004
3.641,1.014
3.642,1.004
3.643,1.017
3.644,1.02
3.645,1.01
3.646,1.014
3.647,1.02
3.648,1.027
3.649,1.023
3.65,1.03
3.651,1.014
3.652,1.01
3.653,1.014
3.654,1.023
3.655,1.004
3.656,1.01
3.657,1.017
3.658,1.017
3.659,1.017
3.66,1.02
3.661,1.023
3.662,1.02
3.663,1.017
3.664,1.023
3.665,1.02
3.666,1.023
3.667,1.023
3.668,1.023
3.669,1.004
3.67,1.02
3.671,1.027
3.672,1.01
3.673,1.004
3.674,1.017
3.675,1.017
3.676,1.01
3.677,1.023
3.678,1.017
3.679,1.017
3.68,1.017
3.681,1.03
3.682,1.03
3.683,1.024
3.684,1.027
3.685,1.023
3.686,1.023
3.687,1.023
3.688,1.036
3.689,1.014
3.69,1.004
3.691,1.02
3.692,1.023
3.693,1.01
3.694,1.02
3.695,1.023
3.696,1.014
3.697,1.007
3.698,1.027
3.699,1.023
3.7,1.01
3.701,1.027
3.702,1.027
3.703,1.027
3.704,1.027
3.705,1.037
3.706,1.037
3.707,1.017
3.708,1.036
3.709,1.046
3.71,1.02
3.711,1.027
3.712,1.037
3.713,1.037
3.714,1.03
3.715,1.03
3.716,1.043
3.717,1.027
3.718,1.037
3.719,1.03
3.72,1.037
3.721,1.04
3.722,1.05
3.723,1.04
3.724,1.037
3.725,1.043
3.726,1.056
3.727,1.05
3.728,1.043
3.729,1.056
3.73,1.05
3.731,1.04
3.732,1.05
3.733,1.053
3.734,1.047
3.735,1.046
3.736,1.04
3.737,1.04
3.738,1.046
3.739,1.05
3.74,1.037
3.741,1.03
3.742,1.05
3.743,1.056
3.744,1.04
3.745,1.037
3.746,1.046
3.747,1.043
3.748,1.04
3.749,1.03
3.75,1.037
3.751,1.03
3.752,1.027
3.753,1.023
3.754,1.023
3.755,1.014
3.756,1.023
3.757,1.007
3.758,0.994
3.759,1.013
3.76,1.01
3.761,1.001
3.762,1.004
3.763,1.007
3.764,0.997
3.765,0.987
3.766,0.987
3.767,0.987
3.768,0.987
3.769,0.978
3.77,0.971
3.771,0.971
3.772,0.971
3.773,0.984
3.774,0.955
3.775,0.958
3.776,0.964
3.777,0.958
3.778,0.948
3.779,0.951
3.78,0.941
3.781,0.948
3.782,0.941
3.783,0.945
3.784,0.951
3.785,0.941
3.786,0.945
3.787,0.935
3.788,0.931
3.789,0.931
3.79,0.944
3.791,0.922
3.792,0.905
3.793,0.915
3.794,0.922
3.795,0.912
3.796,0.915
3.797,0.918
3.798,0.909
3.799,0.908
3.8,0.921
3.801,0.918
3.802,0.912
3.803,0.915
3.804,0.912
3.805,0.915
3.806,0.915
3.807,0.922
3.808,0.915
3.809,0.899
3.81,0.915
3.811,0.915
3.812,0.905
3.813,0.905
3.814,0.908
3.815,0.905
3.816,0.902
3.817,0.895
3.818,0.899
3.819,0.902
3.82,0.905
3.821,0.908
3.822,0.899
3.823,0.912
3.824,0.925
3.825,0.915
3.826,0.905
3.827,0.918
3.828,0.909
3.829,0.908
3.83,0.912
3.831,0.912
3.832,0.908
3.833,0.892
3.834,0.905
3.835,0.908
3.836,0.912
3.837,0.915
3.838,0.905
3.839,0.899
3.84,0.915
3.841,0.912
3.842,0.905
3.843,0.908
3.844,0.915
3.845,0.912
3.846,0.908
3.847,0.918
3.848,0.918
3.849,0.912
3.85,0.918
3.851,0.909
3.852,0.912
3.853,0.908
3.854,0.925
3.855,0.909
3.856,0.905
3.857,0.915
3.858,0.905
3.859,0.905
3.86,0.908
3.861,0.921
3.862,0.922
3.863,0.909
3.864,0.905
3.865,0.918
3.866,0.918
3.867,0.935
3.868,0.922
3.869,0.905
3.87,0.921
3.871,0.912
3.872,0.915
3.873,0.909
3.874,0.921
3.875,0.918
3.876,0.912
3.877,0.918
3.878,0.922
3.879,0.915
3.88,0.912
3.881,0.922
3.882,0.918
3.883,0.931
3.884,0.931
3.885,0.918
3.886,0.925
3.887,0.931
3.888,0.928
3.889,0.922
3.89,0.912
3.891,0.922
3.892,0.922
3.893,0.905
3.894,0.918
3.895,0.925
3.896,0.918
3.897,0.915
3.898,0.918
3.899,0.918
3.9,0.925
3.901,0.925
3.902,0.912
3.903,0.918
3.904,0.928
3.905,0.931
3.906,0.915
3.907,0.909
3.908,0.921
3.909,0.925
3.91,0.909
3.911,0.915
3.912,0.915
3.913,0.909
3.914,0.908
3.915,0.905
3.916,0.905
3.917,0.912
3.918,0.905
3.919,0.905
3.92,0.905
3.921,0.912
3.922,0.925
3.923,0.902
3.924,0.895
3.925,0.912
3.926,0.912
3.927,0.899
3.928,0.905
3.929,0.921
3.93,0.909
3.931,0.899
3.932,0.905
3.933,0.899
3.934,0.905
3.935,0.905
3.936,0.889
3.937,0.895
3.938,0.902
3.939,0.915
3.94,0.896
3.941,0.895
3.942,0.905
3.943,0.905
3.944,0.902
3.945,0.908
3.946,0.908
3.947,0.895
3.948,0.908
3.949,0.902
3.95,0.895
3.951,0.902
3.952,0.908
3.953,0.892
3.954,0.892
3.955,0.895
3.956,0.902
3.957,0.892
3.958,0.902
3.959,0.905
3.96,0.905
3.961,0.895
3.962,0.902
3.963,0.908
3.964,0.905
3.965,0.899
3.966,0.905
3.967,0.899
3.968,0.902
3.969,0.908
3.97,0.905
3.971,0.889
3.972,0.892
3.973,0.912
3.974,0.889
3.975,0.889
3.976,0.902
3.977,0.895
3.978,0.889
3.979,0.885
3.98,0.898
3.981,0.895
3.982,0.892
3.983,0.892
3.984,0.895
3.985,0.895
3.986,0.905
3.987,0.892
3.988,0.892
3.989,0.902
3.99,0.899
3.991,0.882
3.992,0.882
3.993,0.895
3.994,0.892
3.995,0.886
3.996,0.889
3.997,0.882
3.998,0.879
3.999,0.885
4,0.882
4.001,0.892
4.002,0.895
4.003,0.899
4.004,0.892
4.005,0.886
4.006,0.895
4.007,0.902
4.008,0.886
4.009,0.882
4.01,0.889
4.011,0.885
4.012,0.879
4.013,0.885
4.014,0.885
4.015,0.876
4.016,0.876
4.017,0.882
4.018,0.885
4.019,0.872
4.02,0.889
4.021,0.885
4.022,0.879
4.023,0.882
4.024,0.892
4.025,0.882
4.026,0.885
4.027,0.895
4.028,0.882
4.029,0.872
4.03,0.889
4.031,0.882
4.032,0.892
4.033,0.879
4.034,0.882
4.035,0.879
4.036,0.885
4.037,0.882
4.038,0.869
4.039,0.876
4.04,0.889
4.041,0.895
4.042,0.882
4.043,0.869
4.044,0.889
4.045,0.895
4.046,0.892
4.047,0.892
4.048,0.889
4.049,0.885
4.05,0.879
4.051,0.882
4.052,0.879
4.053,0.882
4.054,0.889
4.055,0.882
4.056,0.876
4.057,0.882
4.058,0.892
4.059,0.879
4.06,0.885
4.061,0.905
4.062,0.879
4.063,0.879
4.064,0.885
4.065,0.892
4.066,0.899
4.067,0.892
4.068,0.882
4.069,0.889
4.07,0.899
4.071,0.899
4.072,0.889
4.073,0.882
4.074,0.889
4.075,0.902
4.076,0.876
4.077,0.869
4.078,0.876
4.079,0.885
4.08,0.885
4.081,0.889
4.082,0.892
4.083,0.879
4.084,0.872
4.085,0.882
4.086,0.892
4.087,0.889
4.088,0.882
4.089,0.879
4.09,0.892
4.091,0.882
4.092,0.885
4.093,0.879
4.094,0.859
4.095,0.882
4.096,0.895
4.097,0.873
4.098,0.863
4.099,0.879
4.1,0.879
4.101,0.876
4.102,0.876
4.103,0.889
4.104,0.882
4.105,0.869
4.106,0.882
4.107,0.879
4.108,0.879
4.109,0.872
4.11,0.879
4.111,0.876
4.112,0.872
4.113,0.892
4.114,0.869
4.115,0.856
4.116,0.866
4.117,0.869
4.118,0.869
4.119,0.859
4.12,0.869
4.121,0.869
4.122,0.863
4.123,0.866
4.124,0.872
4.125,0.879
4.126,0.869
4.127,0.872
4.128,0.869
4.129,0.872
4.13,0.869
4.131,0.866
4.132,0.859
4.133,0.859
4.134,0.872
4.135,0.856
4.136,0.849
4.137,0.862
4.138,0.862
4.139,0.849
4.14,0.862
4.141,0.872
4.142,0.872
4.143,0.872
4.144,0.879
4.145,0.885
4.146,0.885
4.147,0.882
4.148,0.879
4.149,0.885
4.15,0.882
4.151,0.902
4.152,0.886
4.153,0.895
4.154,0.912
4.155,0.922
4.156,0.905
4.157,0.918
4.158,0.931
4.159,0.941
4.16,0.941
4.161,0.954
4.162,0.954
4.163,0.954
4.164,0.948
4.165,0.954
4.166,0.958
4.167,0.974
4.168,0.977
4.169,0.971
4.17,0.968
4.171,0.977
4.172,0.994
4.173,0.984
4.174,0.978
4.175,0.997
4.176,1
4.177,0.984
4.178,0.994
4.179,1.007
4.18,1.01
4.181,1.023
4.182,1.023
4.183,1.023
4.184,1.023
4.185,1.03
4.186,1.02
4.187,1.01
4.188,1.004
4.189,1.007
4.19,0.997
4.191,0.997
4.192,1.007
4.193,1.007
4.194,1.004
4.195,1
4.196,1.013
4.197,1.02
4.198,1.02
4.199,1.014
4.2,1.014
4.201,1.02
4.202,1.014
4.203,1.01
4.204,1.01
4.205,1.004
4.206,1.01
4.207,1.001
4.208,0.991
4.209,0.987
4.21,0.991
4.211,0.971
4.212,0.948
4.213,0.951
4.214,0.935
4.215,0.912
4.216,0.912
4.217,0.908
4.218,0.895
4.219,0.879
4.22,0.892
4.221,0.895
4.222,0.889
4.223,0.876
4.224,0.879
4.225,0.879
4.226,0.882
4.227,0.876
4.228,0.853
4.229,0.846
4.23,0.862
4.231,0.849
4.232,0.83
4.233,0.833
4.234,0.83
4.235,0.817
4.236,0.807
4.237,0.816
4.238,0.823
4.239,0.813
4.24,0.807
4.241,0.81
4.242,0.816
4.243,0.816
4.244,0.82
4.245,0.813
4.246,0.797
4.247,0.823
4.248,0.826
4.249,0.807
4.25,0.794
4.251,0.803
4.252,0.807
4.253,0.797
4.254,0.807
4.255,0.807
4.256,0.8
4.257,0.794
4.258,0.8
4.259,0.807
4.26,0.794
4.261,0.793
4.262,0.79
4.263,0.79
4.264,0.793
4.265,0.816
4.266,0.79
4.267,0.79
4.268,0.797
4.269,0.797
4.27,0.79
4.271,0.797
4.272,0.797
4.273,0.777
4.274,0.777
4.275,0.79
4.276,0.8
4.277,0.79
4.278,0.79
4.279,0.793
4.28,0.79
4.281,0.797
4.282,0.8
4.283,0.797
4.284,0.8
4.285,0.807
4.286,0.81
4.287,0.794
4.288,0.797
4.289,0.803
4.29,0.81
4.291,0.794
4.292,0.8
4.293,0.8
4.294,0.807
4.295,0.803
4.296,0.803
4.297,0.816
4.298,0.826
4.299,0.833
4.3,0.852
4.301,0.879
4.302,0.905
4.303,0.938
4.304,0.958
4.305,0.977
4.306,1.01
4.307,1.049
4.308,1.056
4.309,1.063
4.31,1.099
4.311,1.135
4.312,1.132
4.313,1.125
4.314,1.122
4.315,1.132
4.316,1.142
4.317,1.165
4.318,1.129
4.319,1.109
4.32,1.076
4.321,1.043
4.322,1.007
4.323,0.958
4.324,0.919
4.325,0.853
4.326,0.784
4.327,0.735
4.328,0.682
4.329,0.6
4.33,0.515
4.331,0.433
4.332,0.406
4.333,0.367
4.334,0.344
4.335,0.334
4.336,0.259
4.337,0.193
4.338,0.163
4.339,0.163
4.34,0.153
4.341,0.127
4.342,0.094
4.343,0.061
4.344,0.077
4.345,0.12
4.346,0.139
4.347,0.179
4.348,0.225
4.349,0.271
4.35,0.32
4.351,0.359
4.352,0.402
4.353,0.425
4.354,0.435
4.355,0.481
4.356,0.494
4.357,0.521
4.358,0.557
4.359,0.576
4.36,0.59
4.361,0.629
4.362,0.655
4.363,0.685
4.364,0.698
4.365,0.724
4.366,0.741
4.367,0.731
4.368,0.767
4.369,0.783
4.37,0.784
4.371,0.806
4.372,0.813
4.373,0.833
4.374,0.836
4.375,0.852
4.376,0.836
4.377,0.83
4.378,0.843
4.379,0.849
4.38,0.843
4.381,0.859
4.382,0.859
4.383,0.856
4.384,0.849
4.385,0.853
4.386,0.862
4.387,0.866
4.388,0.866
4.389,0.866
4.39,0.859
4.391,0.872
4.392,0.879
4.393,0.859
4.394,0.862
4.395,0.872
4.396,0.866
4.397,0.856
4.398,0.859
4.399,0.875
4.4,0.872
4.401,0.872
4.402,0.872
4.403,0.882
4.404,0.879
4.405,0.885
4.406,0.879
4.407,0.889
4.408,0.879
4.409,0.895
4.41,0.879
4.411,0.872
4.412,0.879
4.413,0.882
4.414,0.869
4.415,0.876
4.416,0.885
4.417,0.872
4.418,0.876
4.419,0.879
4.42,0.879
4.421,0.882
4.422,0.882
4.423,0.879
4.424,0.882
4.425,0.885
4.426,0.889
4.427,0.885
4.428,0.872
4.429,0.885
4.43,0.879
4.431,0.882
4.432,0.885
4.433,0.895
4.434,0.879
4.435,0.892
4.436,0.882
4.437,0.882
4.438,0.889
4.439,0.895
4.44,0.879
4.441,0.882
4.442,0.898
4.443,0.902
4.444,0.886
4.445,0.882
4.446,0.905
4.447,0.918
4.448,0.886
4.449,0.889
4.45,0.899
4.451,0.912
4.452,0.895
4.453,0.895
4.454,0.899
4.455,0.908
4.456,0.899
4.457,0.886
4.458,0.908
4.459,0.908
4.46,0.905
4.461,0.905
4.462,0.902
4.463,0.915
4.464,0.915
4.465,0.899
4.466,0.905
4.467,0.918
4.468,0.912
4.469,0.915
4.47,0.922
4.471,0.909
4.472,0.902
4.473,0.915
4.474,0.912
4.475,0.912
4.476,0.908
4.477,0.912
4.478,0.905
4.479,0.918
4.48,0.902
4.481,0.908
4.482,0.912
4.483,0.912
4.484,0.925
4.485,0.938
4.486,0.925
4.487,0.918
4.488,0.931
4.489,0.931
4.49,0.912
4.491,0.925
4.492,0.935
4.493,0.915
4.494,0.909
4.495,0.925
4.496,0.928
4.497,0.931
4.498,0.925
4.499,0.925
4.5,0.922
4.501,0.925
4.502,0.938
4.503,0.932
4.504,0.918
4.505,0.938
4.506,0.948
4.507,0.925
4.508,0.912
4.509,0.931
4.51,0.935
4.511,0.931
4.512,0.935
4.513,0.931
4.514,0.931
4.515,0.925
4.516,0.925
4.517,0.938
4.518,0.932
4.519,0.935
4.52,0.938
4.521,0.945
4.522,0.935
4.523,0.948
4.524,0.935
4.525,0.931
4.526,0.944
4.527,0.948
4.528,0.935
4.529,0.928
4.53,0.938
4.531,0.938
4.532,0.922
4.533,0.938
4.534,0.938
4.535,0.932
4.536,0.935
4.537,0.931
4.538,0.941
4.539,0.948
4.54,0.941
4.541,0.925
4.542,0.931
4.543,0.944
4.544,0.958
4.545,0.935
4.546,0.931
4.547,0.948
4.548,0.938
4.549,0.932
4.55,0.941
4.551,0.938
4.552,0.938
4.553,0.935
4.554,0.938
4.555,0.932
4.556,0.944
4.557,0.954
4.558,0.928
4.559,0.935
4.56,0.938
4.561,0.948
4.562,0.938
4.563,0.938
4.564,0.945
4.565,0.951
4.566,0.932
4.567,0.935
4.568,0.948
4.569,0.945
4.57,0.932
4.571,0.928
4.572,0.935
4.573,0.941
4.574,0.948
4.575,0.938
4.576,0.948
4.577,0.951
4.578,0.958
4.579,0.941
4.58,0.948
4.581,0.948
4.582,0.948
4.583,0.945
4.584,0.961
4.585,0.958
4.586,0.958
4.587,0.964
4.588,0.955
4.589,0.954
4.59,0.954
4.591,0.954
4.592,0.951
4.593,0.948
4.594,0.958
4.595,0.961
4.596,0.955
4.597,0.954
4.598,0.971
4.599,0.968
4.6,0.971
4.601,0.977
4.602,0.968
4.603,0.968
4.604,0.971
4.605,0.974
4.606,0.977
4.607,0.964
4.608,0.974
4.609,0.971
4.61,0.964
4.611,0.964
4.612,0.974
4.613,0.968
4.614,0.951
4.615,0.971
4.616,0.974
4.617,0.961
4.618,0.958
4.619,0.974
4.62,0.964
4.621,0.958
4.622,0.968
4.623,0.971
4.624,0.971
4.625,0.971
4.626,0.958
4.627,0.977
4.628,0.968
4.629,0.961
4.63,0.964
4.631,0.942
4.632,0.948
4.633,0.961
4.634,0.935
4.635,0.938
4.636,0.941
4.637,0.938
4.638,0.919
4.639,0.918
4.64,0.935
4.641,0.928
4.642,0.909
4.643,0.915
4.644,0.925
4.645,0.918
4.646,0.928
4.647,0.909
4.648,0.902
4.649,0.908
4.65,0.908
4.651,0.899
4.652,0.879
4.653,0.892
4.654,0.886
4.655,0.879
4.656,0.869
4.657,0.885
4.658,0.876
4.659,0.866
4.66,0.853
4.661,0.872
4.662,0.879
4.663,0.872
4.664,0.869
4.665,0.872
4.666,0.856
4.667,0.875
4.668,0.863
4.669,0.846
4.67,0.849
4.671,0.859
4.672,0.846
4.673,0.849
4.674,0.856
4.675,0.849
4.676,0.84
4.677,0.839
4.678,0.852
4.679,0.846
4.68,0.836
4.681,0.846
4.682,0.84
4.683,0.843
4.684,0.849
4.685,0.843
4.686,0.843
4.687,0.853
4.688,0.856
4.689,0.843
4.69,0.826
4.691,0.836
4.692,0.846
4.693,0.836
4.694,0.852
4.695,0.846
4.696,0.836
4.697,0.836
4.698,0.843
4.699,0.846
4.7,0.836
4.701,0.846
4.702,0.836
4.703,0.846
4.704,0.853
4.705,0.862
4.706,0.846
4.707,0.836
4.708,0.852
4.709,0.856
4.71,0.843
4.711,0.839
4.712,0.843
4.713,0.843
4.714,0.833
4.715,0.843
4.716,0.839
4.717,0.856
4.718,0.843
4.719,0.846
4.72,0.846
4.721,0.846
4.722,0.856
4.723,0.859
4.724,0.843
4.725,0.849
4.726,0.869
4.727,0.846
4.728,0.853
4.729,0.862
4.73,0.843
4.731,0.843
4.732,0.839
4.733,0.856
4.734,0.853
4.735,0.843
4.736,0.839
4.737,0.849
4.738,0.843
4.739,0.869
4.74,0.85
4.741,0.833
4.742,0.852
4.743,0.869
4.744,0.856
4.745,0.862
4.746,0.859
4.747,0.856
4.748,0.853
4.749,0.869
4.75,0.882
4.751,0.869
4.752,0.859
4.753,0.862
4.754,0.849
4.755,0.862
4.756,0.872
4.757,0.856
4.758,0.843
4.759,0.862
4.76,0.856
4.761,0.856
4.762,0.856
4.763,0.869
4.764,0.866
4.765,0.853
4.766,0.859
4.767,0.859
4.768,0.859
4.769,0.859
4.77,0.849
4.771,0.859
4.772,0.853
4.773,0.859
4.774,0.846
4.775,0.856
4.776,0.856
4.777,0.866
4.778,0.859
4.779,0.846
4.78,0.866
4.781,0.866
4.782,0.856
4.783,0.862
4.784,0.859
4.785,0.853
4.786,0.853
4.787,0.856
4.788,0.856
4.789,0.859
4.79,0.859
4.791,0.846
4.792,0.853
4.793,0.849
4.794,0.866
4.795,0.846
4.796,0.853
4.797,0.859
4.798,0.862
4.799,0.846
4.8,0.856
4.801,0.853
4.802,0.866
4.803,0.849
4.804,0.843
4.805,0.846
4.806,0.846
4.807,0.866
4.808,0.836
4.809,0.846
4.81,0.853
4.811,0.859
4.812,0.83
4.813,0.836
4.814,0.839
4.815,0.852
4.816,0.846
4.817,0.84
4.818,0.865
4.819,0.862
4.82,0.83
4.821,0.839
4.822,0.843
4.823,0.843
4.824,0.856
4.825,0.846
4.826,0.846
4.827,0.846
4.828,0.859
4.829,0.836
4.83,0.823
4.831,0.833
4.832,0.846
4.833,0.827
4.834,0.839
4.835,0.849
4.836,0.833
4.837,0.817
4.838,0.833
4.839,0.849
4.84,0.853
4.841,0.843
4.842,0.853
4.843,0.843
4.844,0.846
4.845,0.843
4.846,0.846
4.847,0.833
4.848,0.849
4.849,0.853
4.85,0.836
4.851,0.839
4.852,0.839
4.853,0.839
4.854,0.826
4.855,0.843
4.856,0.839
4.857,0.839
4.858,0.839
4.859,0.839
4.86,0.826
4.861,0.846
4.862,0.846
4.863,0.833
4.864,0.826
4.865,0.843
4.866,0.843
4.867,0.836
4.868,0.836
4.869,0.852
4.87,0.836
4.871,0.839
4.872,0.839
4.873,0.833
4.874,0.83
4.875,0.826
4.876,0.823
4.877,0.813
4.878,0.82
4.879,0.83
4.88,0.833
4.881,0.817
4.882,0.826
4.883,0.83
4.884,0.82
4.885,0.836
4.886,0.846
4.887,0.84
4.888,0.826
4.889,0.826
4.89,0.836
4.891,0.83
4.892,0.839
4.893,0.833
4.894,0.833
4.895,0.826
4.896,0.836
4.897,0.833
4.898,0.83
4.899,0.826
4.9,0.846
4.901,0.83
4.902,0.826
4.903,0.839
4.904,0.843
4.905,0.826
4.906,0.843
4.907,0.849
4.908,0.836
4.909,0.83
4.91,0.833
4.911,0.823
4.912,0.833
4.913,0.833
4.914,0.826
4.915,0.826
4.916,0.843
4.917,0.843
4.918,0.833
4.919,0.836
4.92,0.839
4.921,0.833
4.922,0.833
4.923,0.849
4.924,0.836
4.925,0.826
4.926,0.849
4.927,0.836
4.928,0.833
4.929,0.833
4.93,0.846
4.931,0.827
4.932,0.804
4.933,0.833
4.934,0.836
4.935,0.823
4.936,0.817
4.937,0.826
4.938,0.807
4.939,0.826
4.94,0.846
4.941,0.836
4.942,0.833
4.943,0.833
4.944,0.833
4.945,0.833
4.946,0.843
4.947,0.833
4.948,0.82
4.949,0.823
4.95,0.833
4.951,0.843
4.952,0.817
4.953,0.826
4.954,0.823
4.955,0.817
4.956,0.807
4.957,0.813
4.958,0.826
4.959,0.82
4.96,0.833
4.961,0.823
4.962,0.82
4.963,0.826
4.964,0.833
4.965,0.82
4.966,0.823
4.967,0.826
4.968,0.83
4.969,0.82
4.97,0.839
4.971,0.846
4.972,0.846
4.973,0.84
4.974,0.833
4.975,0.849
4.976,0.849
4.977,0.856
4.978,0.846
4.979,0.83
4.98,0.859
4.981,0.879
4.982,0.876
4.983,0.879
4.984,0.889
4.985,0.882
4.986,0.882
4.987,0.895
4.988,0.902
4.989,0.889
4.99,0.895
4.991,0.895
4.992,0.905
4.993,0.915
4.994,0.925
4.995,0.918
4.996,0.912
4.997,0.922
4.998,0.941
4.999,0.932
5,0.922
5.001,0.951
5.002,0.954
5.003,0.951
5.004,0.961
5.005,0.971
5.006,0.99
5.007,0.978
5.008,1
5.009,0.997
5.01,0.987
5.011,0.984
5.012,0.974
5.013,0.968
5.014,0.958
5.015,0.948
5.016,0.941
5.017,0.951
5.018,0.938
5.019,0.967
5.02,0.958
5.021,0.971
5.022,0.99
5.023,0.987
5.024,0.987
5.025,0.991
5.026,0.994
5.027,0.991
5.028,0.987
5.029,0.971
5.03,0.964
5.031,0.958
5.032,0.968
5.033,0.958
5.034,0.951
5.035,0.951
5.036,0.945
5.037,0.928
5.038,0.915
5.039,0.905
5.04,0.892
5.041,0.889
5.042,0.892
5.043,0.886
5.044,0.856
5.045,0.849
5.046,0.853
5.047,0.853
5.048,0.846
5.049,0.849
5.05,0.83
5.051,0.823
5.052,0.833
5.053,0.839
5.054,0.81
5.055,0.807
5.056,0.813
5.057,0.81
5.058,0.797
5.059,0.807
5.06,0.794
5.061,0.787
5.062,0.797
5.063,0.787
5.064,0.787
5.065,0.78
5.066,0.79
5.067,0.767
5.068,0.767
5.069,0.783
5.07,0.78
5.071,0.774
5.072,0.764
5.073,0.77
5.074,0.77
5.075,0.78
5.076,0.771
5.077,0.767
5.078,0.767
5.079,0.754
5.08,0.761
5.081,0.761
5.082,0.767
5.083,0.774
5.084,0.751
5.085,0.761
5.086,0.77
5.087,0.787
5.088,0.767
5.089,0.774
5.09,0.774
5.091,0.771
5.092,0.764
5.093,0.767
5.094,0.761
5.095,0.761
5.096,0.754
5.097,0.767
5.098,0.767
5.099,0.761
5.1,0.78
5.101,0.774
5.102,0.767
5.103,0.777
5.104,0.78
5.105,0.767
5.106,0.783
5.107,0.78
5.108,0.774
5.109,0.767
5.11,0.774
5.111,0.777
5.112,0.784
5.113,0.78
5.114,0.777
5.115,0.774
5.116,0.767
5.117,0.777
5.118,0.764
5.119,0.767
5.12,0.777
5.121,0.79
5.122,0.79
5.123,0.784
5.124,0.803
5.125,0.816
5.126,0.813
5.127,0.836
5.128,0.872
5.129,0.885
5.13,0.898
5.131,0.938
5.132,0.951
5.133,1
5.134,1.03
5.135,1.024
5.136,1.023
5.137,1.066
5.138,1.102
5.139,1.099
5.14,1.102
5.141,1.115
5.142,1.115
5.143,1.106
5.144,1.122
5.145,1.089
5.146,1.04
5.147,1.007
5.148,0.958
5.149,0.876
5.15,0.83
5.151,0.774
5.152,0.744
5.153,0.682
5.154,0.636
5.155,0.58
5.156,0.512
5.157,0.433
5.158,0.38
5.159,0.366
5.16,0.36
5.161,0.357
5.162,0.334
5.163,0.324
5.164,0.272
5.165,0.239
5.166,0.206
5.167,0.183
5.168,0.147
5.169,0.097
5.17,0.064
5.171,0.077
5.172,0.126
5.173,0.149
5.174,0.163
5.175,0.202
5.176,0.274
5.177,0.304
5.178,0.343
5.179,0.376
5.18,0.405
5.181,0.425
5.182,0.468
5.183,0.494
5.184,0.498
5.185,0.511
5.186,0.537
5.187,0.576
5.188,0.599
5.189,0.635
5.19,0.649
5.191,0.668
5.192,0.682
5.193,0.708
5.194,0.708
5.195,0.731
5.196,0.757
5.197,0.78
5.198,0.767
5.199,0.774
5.2,0.797
5.201,0.784
5.202,0.806
5.203,0.826
5.204,0.83
5.205,0.826
5.206,0.826
5.207,0.836
5.208,0.833
5.209,0.849
5.21,0.836
5.211,0.833
5.212,0.846
5.213,0.843
5.214,0.849
5.215,0.84
5.216,0.823
5.217,0.839
5.218,0.856
5.219,0.843
5.22,0.826
5.221,0.859
5.222,0.856
5.223,0.853
5.224,0.853
5.225,0.866
5.226,0.862
5.227,0.84
5.228,0.856
5.229,0.859
5.23,0.866
5.231,0.866
5.232,0.856
5.233,0.846
5.234,0.859
5.235,0.866
5.236,0.856
5.237,0.846
5.238,0.859
5.239,0.866
5.24,0.862
5.241,0.856
5.242,0.872
5.243,0.866
5.244,0.862
5.245,0.872
5.246,0.879
5.247,0.889
5.248,0.879
5.249,0.876
5.25,0.879
5.251,0.866
5.252,0.879
5.253,0.863
5.254,0.869
5.255,0.882
5.256,0.879
5.257,0.879
5.258,0.869
5.259,0.879
5.26,0.866
5.261,0.879
5.262,0.879
5.263,0.866
5.264,0.876
5.265,0.892
5.266,0.886
5.267,0.885
5.268,0.879
5.269,0.892
5.27,0.895
5.271,0.879
5.272,0.872
5.273,0.879
5.274,0.876
5.275,0.885
5.276,0.889
5.277,0.872
5.278,0.872
5.279,0.876
5.28,0.892
5.281,0.873
5.282,0.882
5.283,0.892
5.284,0.879
5.285,0.885
5.286,0.905
5.287,0.895
5.288,0.886
5.289,0.892
5.29,0.921
5.291,0.899
5.292,0.892
5.293,0.899
5.294,0.902
5.295,0.882
5.296,0.876
5.297,0.889
5.298,0.902
5.299,0.895
5.3,0.882
5.301,0.898
5.302,0.912
5.303,0.908
5.304,0.912
5.305,0.892
5.306,0.902
5.307,0.912
5.308,0.895
5.309,0.889
5.31,0.899
5.311,0.915
5.312,0.889
5.313,0.895
5.314,0.915
5.315,0.905
5.316,0.912
5.317,0.902
5.318,0.912
5.319,0.912
5.32,0.902
5.321,0.905
5.322,0.908
5.323,0.912
5.324,0.918
5.325,0.909
5.326,0.895
5.327,0.921
5.328,0.941
5.329,0.909
5.33,0.895
5.331,0.905
5.332,0.912
5.333,0.899
5.334,0.908
5.335,0.912
5.336,0.908
5.337,0.921
5.338,0.918
5.339,0.909
5.34,0.905
5.341,0.912
5.342,0.915
5.343,0.909
5.344,0.918
5.345,0.925
5.346,0.899
5.347,0.905
5.348,0.921
5.349,0.925
5.35,0.918
5.351,0.928
5.352,0.925
5.353,0.935
5.354,0.918
5.355,0.928
5.356,0.915
5.357,0.915
5.358,0.922
5.359,0.915
5.36,0.909
5.361,0.921
5.362,0.931
5.363,0.922
5.364,0.915
5.365,0.922
5.366,0.938
5.367,0.932
5.368,0.931
5.369,0.938
5.37,0.928
5.371,0.922
5.372,0.915
5.373,0.918
5.374,0.922
5.375,0.928
5.376,0.905
5.377,0.918
5.378,0.905
5.379,0.892
5.38,0.895
5.381,0.899
5.382,0.921
5.383,0.925
5.384,0.909
5.385,0.912
5.386,0.931
5.387,0.915
5.388,0.925
5.389,0.918
5.39,0.935
5.391,0.918
5.392,0.909
5.393,0.912
5.394,0.918
5.395,0.915
5.396,0.925
5.397,0.899
5.398,0.908
5.399,0.915
5.4,0.925
5.401,0.905
5.402,0.915
5.403,0.935
5.404,0.922
5.405,0.912
5.406,0.922
5.407,0.925
5.408,0.918
5.409,0.928
5.41,0.928
5.411,0.931
5.412,0.931
5.413,0.918
5.414,0.931
5.415,0.909
5.416,0.905
5.417,0.921
5.418,0.915
5.419,0.918
5.42,0.944
5.421,0.948
5.422,0.922
5.423,0.931
5.424,0.948
5.425,0.935
5.426,0.925
5.427,0.941
5.428,0.938
5.429,0.928
5.43,0.938
5.431,0.938
5.432,0.922
5.433,0.931
5.434,0.951
5.435,0.935
5.436,0.928
5.437,0.931
5.438,0.935
5.439,0.935
5.44,0.945
5.441,0.938
5.442,0.938
5.443,0.961
5.444,0.948
5.445,0.945
5.446,0.954
5.447,0.967
5.448,0.971
5.449,0.948
5.45,0.932
5.451,0.948
5.452,0.935
5.453,0.931
5.454,0.941
5.455,0.932
5.456,0.918
5.457,0.928
5.458,0.935
5.459,0.925
5.46,0.918
5.461,0.918
5.462,0.935
5.463,0.915
5.464,0.931
5.465,0.912
5.466,0.902
5.467,0.925
5.468,0.931
5.469,0.909
5.47,0.908
5.471,0.905
5.472,0.899
5.473,0.905
5.474,0.921
5.475,0.909
5.476,0.866
5.477,0.882
5.478,0.889
5.479,0.892
5.48,0.866
5.481,0.889
5.482,0.882
5.483,0.863
5.484,0.872
5.485,0.879
5.486,0.869
5.487,0.872
5.488,0.866
5.489,0.84
5.49,0.846
5.491,0.846
5.492,0.856
5.493,0.853
5.494,0.859
5.495,0.862
5.496,0.859
5.497,0.853
5.498,0.862
5.499,0.853
5.5,0.853
5.501,0.859
5.502,0.869
5.503,0.859
5.504,0.84
5.505,0.852
5.506,0.849
5.507,0.846
5.508,0.843
5.509,0.853
5.51,0.859
5.511,0.827
5.512,0.839
5.513,0.839
5.514,0.846
5.515,0.84
5.516,0.826
5.517,0.817
5.518,0.846
5.519,0.84
5.52,0.836
5.521,0.817
5.522,0.836
5.523,0.856
5.524,0.833
5.525,0.843
5.526,0.856
5.527,0.859
5.528,0.849
5.529,0.856
5.53,0.836
5.531,0.846
5.532,0.853
5.533,0.836
5.534,0.817
5.535,0.839
5.536,0.849
5.537,0.82
5.538,0.82
5.539,0.843
5.54,0.839
5.541,0.826
5.542,0.83
5.543,0.839
5.544,0.846
5.545,0.859
5.546,0.849
5.547,0.879
5.548,0.866
5.549,0.872
5.55,0.85
5.551,0.843
5.552,0.846
5.553,0.856
5.554,0.846
5.555,0.843
5.556,0.856
5.557,0.853
5.558,0.846
5.559,0.853
5.56,0.853
5.561,0.853
5.562,0.866
5.563,0.859
5.564,0.859
5.565,0.866
5.566,0.889
5.567,0.872
5.568,0.863
5.569,0.853
5.57,0.84
5.571,0.849
5.572,0.856
5.573,0.872
5.574,0.866
5.575,0.859
5.576,0.853
5.577,0.862
5.578,0.862
5.579,0.856
5.58,0.859
5.581,0.856
5.582,0.879
5.583,0.879
5.584,0.866
5.585,0.853
5.586,0.882
5.587,0.882
5.588,0.863
5.589,0.869
5.59,0.882
5.591,0.876
5.592,0.866
5.593,0.872
5.594,0.872
5.595,0.872
5.596,0.872
5.597,0.866
5.598,0.859
5.599,0.862
5.6,0.879
5.601,0.872
5.602,0.859
5.603,0.875
5.604,0.872
5.605,0.859
5.606,0.866
5.607,0.866
5.608,0.866
5.609,0.866
5.61,0.866
5.611,0.869
5.612,0.866
5.613,0.862
5.614,0.866
5.615,0.859
5.616,0.859
5.617,0.862
5.618,0.856
5.619,0.846
5.62,0.846
5.621,0.862
5.622,0.856
5.623,0.859
5.624,0.866
5.625,0.869
5.626,0.859
5.627,0.869
5.628,0.859
5.629,0.856
5.63,0.849
5.631,0.862
5.632,0.846
5.633,0.856
5.634,0.859
5.635,0.856
5.636,0.84
5.637,0.843
5.638,0.849
5.639,0.84
5.64,0.839
5.641,0.859
5.642,0.846
5.643,0.84
5.644,0.852
5.645,0.862
5.646,0.849
5.647,0.846
5.648,0.843
5.649,0.843
5.65,0.862
5.651,0.853
5.652,0.849
5.653,0.84
5.654,0.846
5.655,0.856
5.656,0.849
5.657,0.843
5.658,0.843
5.659,0.833
5.66,0.839
5.661,0.839
5.662,0.843
5.663,0.849
5.664,0.836
5.665,0.836
5.666,0.852
5.667,0.853
5.668,0.862
5.669,0.84
5.67,0.826
5.671,0.849
5.672,0.856
5.673,0.84
5.674,0.83
5.675,0.839
5.676,0.833
5.677,0.82
5.678,0.833
5.679,0.826
5.68,0.836
5.681,0.836
5.682,0.843
5.683,0.839
5.684,0.843
5.685,0.833
5.686,0.83
5.687,0.833
5.688,0.849
5.689,0.853
5.69,0.82
5.691,0.823
5.692,0.817
5.693,0.829
5.694,0.813
5.695,0.826
5.696,0.826
5.697,0.817
5.698,0.816
5.699,0.826
5.7,0.826
5.701,0.817
5.702,0.826
5.703,0.826
5.704,0.826
5.705,0.826
5.706,0.846
5.707,0.823
5.708,0.826
5.709,0.839
5.71,0.83
5.711,0.826
5.712,0.833
5.713,0.826
5.714,0.826
5.715,0.82
5.716,0.82
5.717,0.813
5.718,0.823
5.719,0.82
5.72,0.817
5.721,0.826
5.722,0.833
5.723,0.836
5.724,0.826
5.725,0.82
5.726,0.836
5.727,0.833
5.728,0.82
5.729,0.817
5.73,0.833
5.731,0.826
5.732,0.817
5.733,0.82
5.734,0.813
5.735,0.823
5.736,0.82
5.737,0.82
5.738,0.833
5.739,0.826
5.74,0.843
5.741,0.836
5.742,0.82
5.743,0.849
5.744,0.856
5.745,0.846
5.746,0.853
5.747,0.866
5.748,0.866
5.749,0.866
5.75,0.879
5.751,0.885
5.752,0.882
5.753,0.882
5.754,0.889
5.755,0.885
5.756,0.895
5.757,0.895
5.758,0.902
5.759,0.912
5.76,0.928
5.761,0.928
5.762,0.931
5.763,0.915
5.764,0.918
5.765,0.935
5.766,0.931
5.767,0.938
5.768,0.951
5.769,0.951
5.77,0.948
5.771,0.954
5.772,0.964
5.773,0.974
5.774,0.984
5.775,0.984
5.776,0.978
5.777,0.984
5.778,0.984
5.779,0.971
5.78,0.964
5.781,0.955
5.782,0.958
5.783,0.941
5.784,0.958
5.785,0.974
5.786,0.971
5.787,0.974
5.788,0.99
5.789,0.984
5.79,0.991
5.791,0.991
5.792,1
5.793,1
5.794,1
5.795,1.007
5.796,0.981
5.797,0.974
5.798,0.964
5.799,0.955
5.8,0.967
5.801,0.958
5.802,0.968
5.803,0.955
5.804,0.948
5.805,0.935
5.806,0.922
5.807,0.912
5.808,0.899
5.809,0.879
5.81,0.859
5.811,0.859
5.812,0.872
5.813,0.856
5.814,0.83
5.815,0.849
5.816,0.843
5.817,0.83
5.818,0.833
5.819,0.83
5.82,0.82
5.821,0.81
5.822,0.8
5.823,0.81
5.824,0.807
5.825,0.813
5.826,0.797
5.827,0.787
5.828,0.787
5.829,0.793
5.83,0.777
5.831,0.784
5.832,0.79
5.833,0.78
5.834,0.771
5.835,0.774
5.836,0.774
5.837,0.758
5.838,0.761
5.839,0.767
5.84,0.767
5.841,0.757
5.842,0.77
5.843,0.767
5.844,0.764
5.845,0.761
5.846,0.767
5.847,0.767
5.848,0.761
5.849,0.764
5.85,0.767
5.851,0.748
5.852,0.757
5.853,0.761
5.854,0.754
5.855,0.751
5.856,0.761
5.857,0.751
5.858,0.751
5.859,0.744
5.86,0.741
5.861,0.76
5.862,0.754
5.863,0.761
5.864,0.748
5.865,0.747
5.866,0.754
5.867,0.761
5.868,0.748
5.869,0.754
5.87,0.761
5.871,0.761
5.872,0.761
5.873,0.764
5.874,0.754
5.875,0.757
5.876,0.751
5.877,0.761
5.878,0.764
5.879,0.761
5.88,0.761
5.881,0.748
5.882,0.741
5.883,0.76
5.884,0.767
5.885,0.767
5.886,0.761
5.887,0.761
5.888,0.761
5.889,0.761
5.89,0.774
5.891,0.784
5.892,0.774
5.893,0.793
5.894,0.797
5.895,0.82
5.896,0.856
5.897,0.892
5.898,0.912
5.899,0.938
5.9,0.98
5.901,0.991
5.902,1.007
5.903,1.014
5.904,1.046
5.905,1.063
5.906,1.102
5.907,1.112
5.908,1.102
5.909,1.102
5.91,1.109
5.911,1.112
5.912,1.102
5.913,1.07
5.914,1.047
5.915,0.998
5.916,0.922
5.917,0.876
5.918,0.811
5.919,0.742
5.92,0.705
5.921,0.636
5.922,0.59
5.923,0.505
5.924,0.446
5.925,0.361
5.926,0.314
5.927,0.298
5.928,0.275
5.929,0.261
5.93,0.284
5.931,0.248
5.932,0.173
5.933,0.14
5.934,0.12
5.935,0.107
5.936,0.058
5.937,0.018
5.938,0.005
5.939,0.015
5.94,0.047
5.941,0.09
5.942,0.133
5.943,0.185
5.944,0.225
5.945,0.264
5.946,0.313
5.947,0.353
5.948,0.382
5.949,0.409
5.95,0.429
5.951,0.465
5.952,0.471
5.953,0.485
5.954,0.52
5.955,0.547
5.956,0.583
5.957,0.609
5.958,0.629
5.959,0.652
5.96,0.668
5.961,0.695
5.962,0.708
5.963,0.715
5.964,0.737
5.965,0.757
5.966,0.754
5.967,0.777
5.968,0.797
5.969,0.8
5.97,0.807
5.971,0.807
5.972,0.816
5.973,0.813
5.974,0.813
5.975,0.813
5.976,0.82
5.977,0.823
5.978,0.826
5.979,0.813
5.98,0.816
5.981,0.839
5.982,0.833
5.983,0.826
5.984,0.843
5.985,0.839
5.986,0.833
5.987,0.852
5.988,0.843
5.989,0.846
5.99,0.846
5.991,0.843
5.992,0.839
5.993,0.846
5.994,0.843
5.995,0.853
5.996,0.84
5.997,0.836
5.998,0.862
5.999,0.849
6,0.846
6.001,0.853
6.002,0.853
6.003,0.849
6.004,0.862
6.005,0.856
6.006,0.859
6.007,0.872
6.008,0.856
6.009,0.84
6.01,0.859
6.011,0.859
6.012,0.866
6.013,0.856
6.014,0.856
6.015,0.843
6.016,0.862
6.017,0.859
6.018,0.862
6.019,0.862
6.02,0.859
6.021,0.866
6.022,0.872
6.023,0.869
6.024,0.876
6.025,0.885
6.026,0.872
6.027,0.872
6.028,0.882
6.029,0.876
6.03,0.879
6.031,0.872
6.032,0.882
6.033,0.863
6.034,0.869
6.035,0.879
6.036,0.882
6.037,0.872
6.038,0.876
6.039,0.885
6.04,0.879
6.041,0.889
6.042,0.895
6.043,0.889
6.044,0.892
6.045,0.905
6.046,0.899
6.047,0.879
6.048,0.895
6.049,0.899
6.05,0.889
6.051,0.899
6.052,0.892
6.053,0.908
6.054,0.895
6.055,0.892
6.056,0.895
6.057,0.899
6.058,0.899
6.059,0.912
6.06,0.892
6.061,0.892
6.062,0.905
6.063,0.918
6.064,0.902
6.065,0.908
6.066,0.912
6.067,0.905
6.068,0.908
6.069,0.905
6.07,0.912
6.071,0.905
6.072,0.905
6.073,0.905
6.074,0.905
6.075,0.902
6.076,0.912
6.077,0.908
6.078,0.899
6.079,0.908
6.08,0.918
6.081,0.902
6.082,0.902
6.083,0.915
6.084,0.922
6.085,0.905
6.086,0.918
6.087,0.931
6.088,0.928
6.089,0.918
6.09,0.922
6.091,0.935
6.092,0.912
6.093,0.915
6.094,0.925
6.095,0.912
6.096,0.925
6.097,0.915
6.098,0.905
6.099,0.918
6.1,0.922
6.101,0.922
6.102,0.918
6.103,0.925
6.104,0.935
6.105,0.941
6.106,0.925
6.107,0.938
6.108,0.941
6.109,0.945
6.11,0.932
6.111,0.944
6.112,0.941
6.113,0.935
6.114,0.938
6.115,0.935
6.116,0.935
6.117,0.935
6.118,0.938
6.119,0.932
6.12,0.938
6.121,0.948
6.122,0.938
6.123,0.928
6.124,0.941
6.125,0.948
6.126,0.945
6.127,0.951
6.128,0.941
6.129,0.938
6.13,0.948
6.131,0.958
6.132,0.938
6.133,0.932
6.134,0.944
6.135,0.941
6.136,0.935
6.137,0.938
6.138,0.948
6.139,0.945
6.14,0.941
6.141,0.945
6.142,0.948
6.143,0.945
6.144,0.948
6.145,0.941
6.146,0.938
6.147,0.948
6.148,0.961
6.149,0.945
6.15,0.938
6.151,0.958
6.152,0.945
6.153,0.938
6.154,0.938
6.155,0.954
6.156,0.951
6.157,0.948
6.158,0.945
6.159,0.945
6.16,0.945
6.161,0.958
6.162,0.954
6.163,0.948
6.164,0.951
6.165,0.967
6.166,0.951
6.167,0.941
6.168,0.958
6.169,0.951
6.17,0.951
6.171,0.951
6.172,0.954
6.173,0.948
6.174,0.951
6.175,0.948
6.176,0.951
6.177,0.945
6.178,0.961
6.179,0.961
6.18,0.948
6.181,0.961
6.182,0.964
6.183,0.948
6.184,0.945
6.185,0.967
6.186,0.961
6.187,0.955
6.188,0.958
6.189,0.968
6.19,0.958
6.191,0.951
6.192,0.948
6.193,0.961
6.194,0.958
6.195,0.954
6.196,0.964
6.197,0.948
6.198,0.961
6.199,0.968
6.2,0.961
6.201,0.961
6.202,0.977
6.203,0.987
6.204,0.965
6.205,0.964
6.206,0.984
6.207,0.978
6.208,0.968
6.209,0.974
6.21,0.99
6.211,0.984
6.212,0.968
6.213,0.964
6.214,0.968
6.215,0.964
6.216,0.974
6.217,0.968
6.218,0.955
6.219,0.958
6.22,0.974
6.221,0.955
6.222,0.951
6.223,0.961
6.224,0.968
6.225,0.958
6.226,0.968
6.227,0.958
6.228,0.948
6.229,0.941
6.23,0.932
6.231,0.941
6.232,0.938
6.233,0.925
6.234,0.928
6.235,0.928
6.236,0.922
6.237,0.922
6.238,0.918
6.239,0.902
6.24,0.912
6.241,0.912
6.242,0.899
6.243,0.895
6.244,0.899
6.245,0.899
6.246,0.892
6.247,0.895
6.248,0.905
6.249,0.889
6.25,0.879
6.251,0.885
6.252,0.879
6.253,0.879
6.254,0.882
6.255,0.879
6.256,0.869
6.257,0.872
6.258,0.882
6.259,0.859
6.26,0.859
6.261,0.869
6.262,0.869
6.263,0.853
6.264,0.866
6.265,0.872
6.266,0.866
6.267,0.853
6.268,0.859
6.269,0.859
6.27,0.866
6.271,0.849
6.272,0.853
6.273,0.856
6.274,0.859
6.275,0.872
6.276,0.846
6.277,0.84
6.278,0.862
6.279,0.866
6.28,0.859
6.281,0.853
6.282,0.866
6.283,0.862
6.284,0.859
6.285,0.853
6.286,0.859
6.287,0.859
6.288,0.859
6.289,0.846
6.29,0.859
6.291,0.853
6.292,0.862
6.293,0.856
6.294,0.836
6.295,0.843
6.296,0.862
6.297,0.846
6.298,0.856
6.299,0.859
6.3,0.862
6.301,0.856
6.302,0.866
6.303,0.866
6.304,0.856
6.305,0.862
6.306,0.856
6.307,0.869
6.308,0.872
6.309,0.866
6.31,0.866
6.311,0.856
6.312,0.862
6.313,0.866
6.314,0.862
6.315,0.849
6.316,0.859
6.317,0.869
6.318,0.856
6.319,0.856
6.32,0.866
6.321,0.876
6.322,0.856
6.323,0.869
6.324,0.882
6.325,0.876
6.326,0.876
6.327,0.869
6.328,0.869
6.329,0.879
6.33,0.885
6.331,0.866
6.332,0.859
6.333,0.872
6.334,0.859
6.335,0.856
6.336,0.869
6.337,0.863
6.338,0.866
6.339,0.859
6.34,0.872
6.341,0.869
6.342,0.869
6.343,0.882
6.344,0.872
6.345,0.872
6.346,0.882
6.347,0.895
6.348,0.876
6.349,0.866
6.35,0.882
6.351,0.879
6.352,0.872
6.353,0.876
6.354,0.869
6.355,0.863
6.356,0.869
6.357,0.872
6.358,0.879
6.359,0.866
6.36,0.866
6.361,0.866
6.362,0.869
6.363,0.876
6.364,0.892
6.365,0.873
6.366,0.866
6.367,0.889
6.368,0.885
6.369,0.856
6.37,0.862
6.371,0.882
6.372,0.863
6.373,0.853
6.374,0.859
6.375,0.862
6.376,0.862
6.377,0.856
6.378,0.859
6.379,0.859
6.38,0.859
6.381,0.879
6.382,0.872
6.383,0.843
6.384,0.866
6.385,0.872
6.386,0.863
6.387,0.856
6.388,0.879
6.389,0.869
6.39,0.853
6.391,0.853
6.392,0.862
6.393,0.859
6.394,0.849
6.395,0.859
6.396,0.859
6.397,0.866
6.398,0.859
6.399,0.853
6.4,0.84
6.401,0.856
6.402,0.869
6.403,0.853
6.404,0.849
6.405,0.866
6.406,0.859
6.407,0.853
6.408,0.853
6.409,0.859
6.41,0.856
6.411,0.862
6.412,0.849
6.413,0.849
6.414,0.846
6.415,0.849
6.416,0.853
6.417,0.846
6.418,0.853
6.419,0.866
6.42,0.843
6.421,0.836
6.422,0.852
6.423,0.859
6.424,0.846
6.425,0.849
6.426,0.849
6.427,0.849
6.428,0.853
6.429,0.853
6.43,0.853
6.431,0.849
6.432,0.849
6.433,0.833
6.434,0.839
6.435,0.839
6.436,0.846
6.437,0.83
6.438,0.833
6.439,0.852
6.44,0.846
6.441,0.846
6.442,0.846
6.443,0.846
6.444,0.843
6.445,0.853
6.446,0.84
6.447,0.836
6.448,0.852
6.449,0.859
6.45,0.836
6.451,0.839
6.452,0.846
6.453,0.862
6.454,0.836
6.455,0.83
6.456,0.839
6.457,0.836
6.458,0.833
6.459,0.839
6.46,0.843
6.461,0.83
6.462,0.836
6.463,0.843
6.464,0.843
6.465,0.846
6.466,0.846
6.467,0.833
6.468,0.836
6.469,0.826
6.47,0.846
6.471,0.836
6.472,0.843
6.473,0.839
6.474,0.836
6.475,0.83
6.476,0.83
6.477,0.836
6.478,0.836
6.479,0.836
6.48,0.833
6.481,0.82
6.482,0.833
6.483,0.839
6.484,0.826
6.485,0.823
6.486,0.836
6.487,0.843
6.488,0.83
6.489,0.833
6.49,0.846
6.491,0.833
6.492,0.83
6.493,0.826
6.494,0.839
6.495,0.83
6.496,0.826
6.497,0.82
6.498,0.82
6.499,0.823
6.5,0.833
6.501,0.833
6.502,0.82
6.503,0.833
6.504,0.836
6.505,0.826
6.506,0.813
6.507,0.833
6.508,0.833
6.509,0.823
6.51,0.833
6.511,0.826
6.512,0.826
6.513,0.82
6.514,0.83
6.515,0.826
6.516,0.83
6.517,0.836
6.518,0.83
6.519,0.823
6.52,0.826
6.521,0.849
6.522,0.833
6.523,0.826
6.524,0.833
6.525,0.843
6.526,0.833
6.527,0.846
6.528,0.843
6.529,0.846
6.53,0.843
6.531,0.839
6.532,0.849
6.533,0.859
6.534,0.853
6.535,0.859
6.536,0.869
6.537,0.882
6.538,0.885
6.539,0.889
6.54,0.885
6.541,0.898
6.542,0.899
6.543,0.902
6.544,0.912
6.545,0.912
6.546,0.915
6.547,0.922
6.548,0.935
6.549,0.945
6.55,0.948
6.551,0.948
6.552,0.932
6.553,0.941
6.554,0.945
6.555,0.964
6.556,0.945
6.557,0.958
6.558,0.951
6.559,0.954
6.56,0.961
6.561,0.981
6.562,0.991
6.563,0.991
6.564,0.991
6.565,0.987
6.566,0.984
6.567,0.984
6.568,0.987
6.569,0.955
6.57,0.948
6.571,0.964
6.572,0.981
6.573,0.958
6.574,0.964
6.575,0.964
6.576,0.961
6.577,0.968
6.578,0.977
6.579,0.977
6.58,0.987
6.581,0.978
6.582,0.977
6.583,0.974
6.584,0.968
6.585,0.977
6.586,0.951
6.587,0.954
6.588,0.964
6.589,0.968
6.59,0.951
6.591,0.945
6.592,0.941
6.593,0.925
6.594,0.909
6.595,0.892
6.596,0.892
6.597,0.882
6.598,0.859
6.599,0.859
6.6,0.856
6.601,0.853
6.602,0.859
6.603,0.843
6.604,0.839
6.605,0.849
6.606,0.843
6.607,0.843
6.608,0.823
6.609,0.83
6.61,0.817
6.611,0.803
6.612,0.803
6.613,0.807
6.614,0.787
6.615,0.79
6.616,0.79
6.617,0.79
6.618,0.784
6.619,0.78
6.62,0.767
6.621,0.764
6.622,0.764
6.623,0.78
6.624,0.774
6.625,0.767
6.626,0.78
6.627,0.78
6.628,0.764
6.629,0.774
6.63,0.784
6.631,0.767
6.632,0.761
6.633,0.764
6.634,0.77
6.635,0.767
6.636,0.757
6.637,0.764
6.638,0.761
6.639,0.761
6.64,0.787
6.641,0.764
6.642,0.754
6.643,0.761
6.644,0.777
6.645,0.767
6.646,0.764
6.647,0.777
6.648,0.771
6.649,0.757
6.65,0.764
6.651,0.767
6.652,0.764
6.653,0.764
6.654,0.767
6.655,0.757
6.656,0.774
6.657,0.774
6.658,0.764
6.659,0.767
6.66,0.777
6.661,0.787
6.662,0.777
6.663,0.78
6.664,0.79
6.665,0.79
6.666,0.784
6.667,0.787
6.668,0.8
6.669,0.797
6.67,0.787
6.671,0.79
6.672,0.797
6.673,0.784
6.674,0.793
6.675,0.78
6.676,0.787
6.677,0.79
6.678,0.793
6.679,0.793
6.68,0.797
6.681,0.82
6.682,0.859
6.683,0.846
6.684,0.862
6.685,0.911
6.686,0.938
6.687,0.961
6.688,0.994
6.689,1.026
6.69,1.046
6.691,1.053
6.692,1.069
6.693,1.092
6.694,1.125
6.695,1.135
6.696,1.129
6.697,1.116
6.698,1.135
6.699,1.161
6.7,1.155
6.701,1.122
6.702,1.106
6.703,1.089
6.704,1.037
6.705,0.985
6.706,0.919
6.707,0.866
6.708,0.794
6.709,0.732
6.71,0.656
6.711,0.59
6.712,0.505
6.713,0.42
6.714,0.341
6.715,0.314
6.716,0.281
6.717,0.255
6.718,0.229
6.719,0.176
6.72,0.134
6.721,0.091
6.722,0.084
6.723,0.077
6.724,0.064
6.725,0.038
6.726,0.018
6.727,0.018
6.728,0.044
6.729,0.077
6.73,0.12
6.731,0.179
6.732,0.225
6.733,0.264
6.734,0.313
6.735,0.35
6.736,0.392
6.737,0.419
6.738,0.435
6.739,0.471
6.74,0.507
6.741,0.547
6.742,0.567
6.743,0.596
6.744,0.635
6.745,0.649
6.746,0.675
6.747,0.708
6.748,0.721
6.749,0.734
6.75,0.751
6.751,0.78
6.752,0.787
6.753,0.813
6.754,0.826
6.755,0.813
6.756,0.826
6.757,0.839
6.758,0.852
6.759,0.843
6.76,0.862
6.761,0.882
6.762,0.859
6.763,0.872
6.764,0.882
6.765,0.885
6.766,0.882
6.767,0.889
6.768,0.876
6.769,0.872
6.77,0.892
6.771,0.899
6.772,0.869
6.773,0.866
6.774,0.882
6.775,0.889
6.776,0.879
6.777,0.892
6.778,0.879
6.779,0.879
6.78,0.879
6.781,0.882
6.782,0.895
6.783,0.895
6.784,0.892
6.785,0.895
6.786,0.895
6.787,0.908
6.788,0.912
6.789,0.899
6.79,0.892
6.791,0.899
6.792,0.902
6.793,0.899
6.794,0.889
6.795,0.895
6.796,0.892
6.797,0.892
6.798,0.899
6.799,0.899
6.8,0.902
6.801,0.899
6.802,0.902
6.803,0.908
6.804,0.918
6.805,0.912
6.806,0.912
6.807,0.905
6.808,0.908
6.809,0.921
6.81,0.912
6.811,0.899
6.812,0.912
6.813,0.915
6.814,0.909
6.815,0.912
6.816,0.918
6.817,0.915
6.818,0.905
6.819,0.915
6.82,0.925
6.821,0.915
6.822,0.925
6.823,0.918
6.824,0.912
6.825,0.925
6.826,0.931
6.827,0.922
6.828,0.912
6.829,0.918
6.83,0.922
6.831,0.909
6.832,0.918
6.833,0.915
6.834,0.915
6.835,0.912
6.836,0.918
6.837,0.915
6.838,0.918
6.839,0.931
6.84,0.928
6.841,0.918
6.842,0.935
6.843,0.931
6.844,0.931
6.845,0.938
6.846,0.938
6.847,0.928
6.848,0.931
6.849,0.948
6.85,0.941
6.851,0.941
6.852,0.935
6.853,0.938
6.854,0.928
6.855,0.931
6.856,0.951
6.857,0.935
6.858,0.922
6.859,0.941
6.86,0.938
6.861,0.925
6.862,0.941
6.863,0.938
6.864,0.945
6.865,0.945
6.866,0.938
6.867,0.948
6.868,0.938
6.869,0.932
6.87,0.948
6.871,0.945
6.872,0.938
6.873,0.954
6.874,0.945
6.875,0.935
6.876,0.948
6.877,0.945
6.878,0.932
6.879,0.941
6.88,0.954
6.881,0.954
6.882,0.945
6.883,0.948
6.884,0.951
6.885,0.958
6.886,0.951
6.887,0.954
6.888,0.964
6.889,0.958
6.89,0.968
6.891,0.951
6.892,0.941
6.893,0.964
6.894,0.964
6.895,0.955
6.896,0.954
6.897,0.958
6.898,0.958
6.899,0.951
6.9,0.967
6.901,0.968
6.902,0.968
6.903,0.971
6.904,0.964
6.905,0.955
6.906,0.971
6.907,0.984
6.908,0.961
6.909,0.951
6.91,0.971
6.911,0.974
6.912,0.958
6.913,0.948
6.914,0.974
6.915,0.968
6.916,0.961
6.917,0.964
6.918,0.974
6.919,0.971
6.92,0.987
6.921,0.978
6.922,0.971
6.923,0.977
6.924,0.984
6.925,0.971
6.926,0.974
6.927,0.984
6.928,0.984
6.929,0.978
6.93,0.974
6.931,0.997
6.932,0.981
6.933,0.977
6.934,0.968
6.935,0.984
6.936,0.968
6.937,0.981
6.938,0.971
6.939,0.964
6.94,0.981
6.941,0.981
6.942,0.968
6.943,0.981
6.944,0.991
6.945,0.981
6.946,0.974
6.947,0.977
6.948,0.984
6.949,0.981
6.95,0.984
6.951,0.978
6.952,0.971
6.953,0.971
6.954,0.987
6.955,0.974
6.956,0.971
6.957,0.981
6.958,0.968
6.959,0.968
6.96,0.984
6.961,0.981
6.962,0.974
6.963,0.984
6.964,0.974
6.965,0.981
6.966,0.981
6.967,0.991
6.968,0.978
6.969,0.971
6.97,0.994
6.971,0.987
6.972,0.974
6.973,0.974
6.974,0.987
6.975,0.974
6.976,0.968
6.977,0.981
6.978,0.977
6.979,0.971
6.98,0.99
6.981,0.974
6.982,0.977
6.983,0.99
6.984,1.004
6.985,0.991
6.986,0.978
6.987,0.99
6.988,0.991
6.989,0.994
6.99,0.987
6.991,0.984
6.992,0.987
6.993,0.978
6.994,0.977
6.995,0.987
6.996,0.981
6.997,0.974
6.998,0.984
6.999,0.978
7,0.984
7.001,0.997
7.002,0.978
7.003,0.955
7.004,0.977
7.005,0.968
7.006,0.964
7.007,0.961
7.008,0.968
7.009,0.971
7.01,0.964
7.011,0.958
7.012,0.958
7.013,0.958
7.014,0.954
7.015,0.945
7.016,0.941
7.017,0.941
7.018,0.951
7.019,0.935
7.02,0.918
7.021,0.931
7.022,0.925
7.023,0.915
7.024,0.922
7.025,0.935
7.026,0.922
7.027,0.915
7.028,0.918
7.029,0.915
7.03,0.909
7.031,0.915
7.032,0.896
7.033,0.886
7.034,0.895
7.035,0.895
7.036,0.889
7.037,0.879
7.038,0.882
7.039,0.882
7.04,0.876
7.041,0.869
7.042,0.879
7.043,0.879
7.044,0.876
7.045,0.866
7.046,0.862
7.047,0.872
7.048,0.872
7.049,0.856
7.05,0.856
7.051,0.862
7.052,0.862
7.053,0.862
7.054,0.866
7.055,0.872
7.056,0.859
7.057,0.849
7.058,0.859
7.059,0.866
7.06,0.859
7.061,0.866
7.062,0.862
7.063,0.849
7.064,0.859
7.065,0.872
7.066,0.856
7.067,0.849
7.068,0.859
7.069,0.856
7.07,0.846
7.071,0.846
7.072,0.866
7.073,0.859
7.074,0.853
7.075,0.849
7.076,0.853
7.077,0.846
7.078,0.859
7.079,0.853
7.08,0.846
7.081,0.856
7.082,0.869
7.083,0.843
7.084,0.859
7.085,0.872
7.086,0.853
7.087,0.853
7.088,0.853
7.089,0.856
7.09,0.862
7.091,0.856
7.092,0.853
7.093,0.856
7.094,0.856
7.095,0.862
7.096,0.856
7.097,0.849
7.098,0.866
7.099,0.872
7.1,0.853
7.101,0.856
7.102,0.866
7.103,0.872
7.104,0.863
7.105,0.869
7.106,0.879
7.107,0.879
7.108,0.863
7.109,0.872
7.11,0.869
7.111,0.869
7.112,0.872
7.113,0.853
7.114,0.856
7.115,0.872
7.116,0.872
7.117,0.859
7.118,0.869
7.119,0.879
7.12,0.876
7.121,0.866
7.122,0.872
7.123,0.885
7.124,0.882
7.125,0.889
7.126,0.892
7.127,0.879
7.128,0.885
7.129,0.905
7.13,0.879
7.131,0.876
7.132,0.882
7.133,0.882
7.134,0.879
7.135,0.882
7.136,0.885
7.137,0.876
7.138,0.885
7.139,0.879
7.14,0.882
7.141,0.879
7.142,0.885
7.143,0.876
7.144,0.879
7.145,0.889
7.146,0.895
7.147,0.879
7.148,0.879
7.149,0.885
7.15,0.882
7.151,0.882
7.152,0.872
7.153,0.879
7.154,0.879
7.155,0.882
7.156,0.876
7.157,0.872
7.158,0.879
7.159,0.885
7.16,0.876
7.161,0.872
7.162,0.892
7.163,0.889
7.164,0.885
7.165,0.882
7.166,0.892
7.167,0.886
7.168,0.879
7.169,0.882
7.17,0.882
7.171,0.879
7.172,0.869
7.173,0.869
7.174,0.872
7.175,0.879
7.176,0.872
7.177,0.866
7.178,0.859
7.179,0.879
7.18,0.885
7.181,0.869
7.182,0.879
7.183,0.882
7.184,0.882
7.185,0.882
7.186,0.872
7.187,0.885
7.188,0.879
7.189,0.879
7.19,0.872
7.191,0.866
7.192,0.879
7.193,0.879
7.194,0.869
7.195,0.863
7.196,0.872
7.197,0.863
7.198,0.859
7.199,0.872
7.2,0.879
7.201,0.872
7.202,0.866
7.203,0.866
7.204,0.879
7.205,0.869
7.206,0.872
7.207,0.863
7.208,0.859
7.209,0.869
7.21,0.876
7.211,0.853
7.212,0.862
7.213,0.869
7.214,0.863
7.215,0.856
7.216,0.866
7.217,0.859
7.218,0.862
7.219,0.866
7.22,0.853
7.221,0.856
7.222,0.853
7.223,0.862
7.224,0.853
7.225,0.853
7.226,0.869
7.227,0.866
7.228,0.859
7.229,0.866
7.23,0.869
7.231,0.866
7.232,0.856
7.233,0.859
7.234,0.862
7.235,0.859
7.236,0.862
7.237,0.859
7.238,0.856
7.239,0.856
7.24,0.869
7.241,0.853
7.242,0.849
7.243,0.866
7.244,0.872
7.245,0.863
7.246,0.872
7.247,0.869
7.248,0.872
7.249,0.856
7.25,0.866
7.251,0.872
7.252,0.859
7.253,0.862
7.254,0.856
7.255,0.853
7.256,0.869
7.257,0.866
7.258,0.856
7.259,0.859
7.26,0.862
7.261,0.862
7.262,0.849
7.263,0.856
7.264,0.866
7.265,0.856
7.266,0.856
7.267,0.866
7.268,0.856
7.269,0.856
7.27,0.859
7.271,0.853
7.272,0.84
7.273,0.849
7.274,0.856
7.275,0.846
7.276,0.853
7.277,0.869
7.278,0.859
7.279,0.849
7.28,0.862
7.281,0.872
7.282,0.866
7.283,0.856
7.284,0.856
7.285,0.856
7.286,0.862
7.287,0.872
7.288,0.856
7.289,0.853
7.29,0.869
7.291,0.859
7.292,0.853
7.293,0.856
7.294,0.859
7.295,0.853
7.296,0.853
7.297,0.859
7.298,0.856
7.299,0.856
7.3,0.869
7.301,0.863
7.302,0.846
7.303,0.866
7.304,0.872
7.305,0.863
7.306,0.856
7.307,0.879
7.308,0.866
7.309,0.869
7.31,0.866
7.311,0.869
7.312,0.866
7.313,0.853
7.314,0.853
7.315,0.869
7.316,0.859
7.317,0.869
7.318,0.856
7.319,0.866
7.32,0.872
7.321,0.889
7.322,0.879
7.323,0.872
7.324,0.885
7.325,0.892
7.326,0.886
7.327,0.905
7.328,0.921
7.329,0.912
7.33,0.915
7.331,0.909
7.332,0.925
7.333,0.922
7.334,0.935
7.335,0.938
7.336,0.932
7.337,0.948
7.338,0.954
7.339,0.941
7.34,0.945
7.341,0.951
7.342,0.961
7.343,0.974
7.344,0.987
7.345,0.987
7.346,0.984
7.347,0.978
7.348,0.984
7.349,0.991
7.35,0.997
7.351,1
7.352,0.991
7.353,0.984
7.354,0.997
7.355,1.017
7.356,1.017
7.357,1.01
7.358,1.02
7.359,1.017
7.36,1.014
7.361,1.02
7.362,1.027
7.363,1.017
7.364,1.004
7.365,1
7.366,1
7.367,1.01
7.368,1.02
7.369,1.017
7.37,1.017
7.371,1.033
7.372,1.037
7.373,1.027
7.374,1.023
7.375,1.03
7.376,1.03
7.377,1.014
7.378,1.027
7.379,1.027
7.38,1.014
7.381,1.007
7.382,1.004
7.383,0.997
7.384,1.007
7.385,1.004
7.386,0.984
7.387,0.965
7.388,0.964
7.389,0.961
7.39,0.938
7.391,0.919
7.392,0.918
7.393,0.905
7.394,0.895
7.395,0.892
7.396,0.889
7.397,0.889
7.398,0.879
7.399,0.885
7.4,0.879
7.401,0.879
7.402,0.879
7.403,0.863
7.404,0.862
7.405,0.862
7.406,0.862
7.407,0.846
7.408,0.836
7.409,0.849
7.41,0.84
7.411,0.826
7.412,0.826
7.413,0.826
7.414,0.826
7.415,0.813
7.416,0.81
7.417,0.81
7.418,0.81
7.419,0.816
7.42,0.813
7.421,0.813
7.422,0.816
7.423,0.82
7.424,0.81
7.425,0.807
7.426,0.813
7.427,0.82
7.428,0.803
7.429,0.813
7.43,0.816
7.431,0.81
7.432,0.794
7.433,0.81
7.434,0.807
7.435,0.803
7.436,0.803
7.437,0.79
7.438,0.803
7.439,0.81
7.44,0.807
7.441,0.8
7.442,0.8
7.443,0.816
7.444,0.81
7.445,0.803
7.446,0.803
7.447,0.807
7.448,0.81
7.449,0.803
7.45,0.8
7.451,0.81
7.452,0.81
7.453,0.816
7.454,0.803
7.455,0.8
7.456,0.813
7.457,0.816
7.458,0.807
7.459,0.807
7.46,0.807
7.461,0.803
7.462,0.8
7.463,0.794
7.464,0.813
7.465,0.813
7.466,0.816
7.467,0.813
7.468,0.82
7.469,0.82
7.47,0.817
7.471,0.82
7.472,0.817
7.473,0.82
7.474,0.843
7.475,0.843
7.476,0.839
7.477,0.859
7.478,0.885
7.479,0.902
7.48,0.931
7.481,0.974
7.482,0.984
7.483,1.017
7.484,1.046
7.485,1.079
7.486,1.083
7.487,1.102
7.488,1.128
7.489,1.142
7.49,1.171
7.491,1.168
7.492,1.142
7.493,1.155
7.494,1.178
7.495,1.178
7.496,1.142
7.497,1.116
7.498,1.096
7.499,1.05
7.5,0.998
7.501,0.942
7.502,0.893
7.503,0.814
7.504,0.729
7.505,0.659
7.506,0.613
7.507,0.515
7.508,0.433
7.509,0.38
7.51,0.34
7.511,0.301
7.512,0.278
7.513,0.219
7.514,0.153
7.515,0.127
7.516,0.117
7.517,0.084
7.518,0.048
7.519,0.035
7.52,0.022
7.521,0.008
7.522,0.028
7.523,0.06
7.524,0.119
7.525,0.162
7.526,0.215
7.527,0.271
7.528,0.32
7.529,0.363
7.53,0.392
7.531,0.409
7.532,0.445
7.533,0.481
7.534,0.504
7.535,0.537
7.536,0.566
7.537,0.593
7.538,0.613
7.539,0.649
7.54,0.675
7.541,0.688
7.542,0.721
7.543,0.734
7.544,0.751
7.545,0.78
7.546,0.79
7.547,0.8
7.548,0.807
7.549,0.836
7.55,0.849
7.551,0.849
7.552,0.856
7.553,0.866
7.554,0.866
7.555,0.872
7.556,0.869
7.557,0.872
7.558,0.872
7.559,0.882
7.56,0.872
7.561,0.876
7.562,0.879
7.563,0.895
7.564,0.889
7.565,0.879
7.566,0.898
7.567,0.892
7.568,0.882
7.569,0.892
7.57,0.905
7.571,0.892
7.572,0.889
7.573,0.899
7.574,0.895
7.575,0.895
7.576,0.899
7.577,0.889
7.578,0.892
7.579,0.902
7.58,0.915
7.581,0.899
7.582,0.899
7.583,0.928
7.584,0.909
7.585,0.905
7.586,0.912
7.587,0.905
7.588,0.918
7.589,0.915
7.59,0.912
7.591,0.918
7.592,0.912
7.593,0.925
7.594,0.918
7.595,0.909
7.596,0.912
7.597,0.925
7.598,0.915
7.599,0.912
7.6,0.928
7.601,0.928
7.602,0.925
7.603,0.931
7.604,0.931
7.605,0.931
7.606,0.935
7.607,0.938
7.608,0.932
7.609,0.935
7.61,0.945
7.611,0.935
7.612,0.931
7.613,0.948
7.614,0.948
7.615,0.932
7.616,0.935
7.617,0.951
7.618,0.938
7.619,0.932
7.62,0.941
7.621,0.958
7.622,0.945
7.623,0.945
7.624,0.958
7.625,0.948
7.626,0.958
7.627,0.964
7.628,0.955
7.629,0.951
7.63,0.958
7.631,0.971
7.632,0.958
7.633,0.954
7.634,0.958
7.635,0.964
7.636,0.958
7.637,0.958
7.638,0.964
7.639,0.964
7.64,0.968
7.641,0.958
7.642,0.961
7.643,0.964
7.644,0.981
7.645,0.961
7.646,0.964
7.647,0.971
7.648,0.971
7.649,0.971
7.65,0.974
7.651,0.977
7.652,0.971
7.653,0.968
7.654,0.977
7.655,0.968
7.656,0.974
7.657,0.974
7.658,0.971
7.659,0.955
7.66,0.971
7.661,0.981
7.662,0.961
7.663,0.981
7.664,0.984
7.665,0.984
7.666,0.981
7.667,0.987
7.668,0.987
7.669,0.987
7.67,0.984
7.671,0.984
7.672,0.991
7.673,0.987
7.674,0.991
7.675,0.984
7.676,0.984
7.677,0.981
7.678,1
7.679,0.987
7.68,0.981
7.681,0.994
7.682,0.987
7.683,0.987
7.684,0.991
7.685,0.994
7.686,0.984
7.687,0.987
7.688,0.997
7.689,1
7.69,0.994
7.691,1
7.692,0.991
7.693,0.991
7.694,0.997
7.695,1.007
7.696,0.984
7.697,0.991
7.698,0.991
7.699,0.997
7.7,0.994
7.701,0.994
7.702,1.004
7.703,0.994
7.704,1
7.705,0.994
7.706,1.004
7.707,0.997
7.708,1.01
7.709,1.01
7.71,1.007
7.711,1.01
7.712,1.01
7.713,1.01
7.714,0.997
7.715,1.007
7.716,1.007
7.717,1.001
7.718,1
7.719,1.004
7.72,1.01
7.721,1.014
7.722,1.017
7.723,1.017
7.724,1.014
7.725,1.027
7.726,1.02
7.727,1.01
7.728,1.017
7.729,1.03
7.73,1.014
7.731,1.014
7.732,1.014
7.733,1.004
7.734,1.014
7.735,1.004
7.736,1.01
7.737,1.01
7.738,1.004
7.739,1.01
7.74,1.01
7.741,1.01
7.742,1.02
7.743,1.014
7.744,1.007
7.745,1.023
7.746,1.036
7.747,1.017
7.748,1.014
7.749,1.023
7.75,1.02
7.751,1.017
7.752,1.02
7.753,1.023
7.754,1.02
7.755,1.017
7.756,1.014
7.757,1.017
7.758,1.014
7.759,1.03
7.76,1.017
7.761,1.007
7.762,1.017
7.763,1.02
7.764,1.02
7.765,1.023
7.766,1.03
7.767,1.027
7.768,1.017
7.769,1.023
7.77,1.023
7.771,1.017
7.772,1.014
7.773,1.017
7.774,1.014
7.775,1.027
7.776,1.027
7.777,1.02
7.778,1.01
7.779,1.023
7.78,1.033
7.781,1.02
7.782,1.014
7.783,1.02
7.784,1.027
7.785,1.023
7.786,1.02
7.787,1.03
7.788,1.033
7.789,1.024
7.79,1.02
7.791,1.02
7.792,1.023
7.793,1.036
7.794,1.014
7.795,1.007
7.796,1.027
7.797,1.03
7.798,1.011
7.799,1.017
7.8,1.017
7.801,1.014
7.802,1.007
7.803,1.007
7.804,1.01
7.805,1.004
7.806,1
7.807,1.01
7.808,1.014
7.809,1.001
7.81,0.997
7.811,0.984
7.812,0.978
7.813,0.984
7.814,0.978
7.815,0.964
7.816,0.961
7.817,0.974
7.818,0.958
7.819,0.958
7.82,0.961
7.821,0.961
7.822,0.942
7.823,0.945
7.824,0.954
7.825,0.951
7.826,0.951
7.827,0.958
7.828,0.941
7.829,0.935
7.83,0.945
7.831,0.948
7.832,0.932
7.833,0.925
7.834,0.922
7.835,0.925
7.836,0.918
7.837,0.918
7.838,0.918
7.839,0.912
7.84,0.912
7.841,0.912
7.842,0.905
7.843,0.912
7.844,0.922
7.845,0.909
7.846,0.905
7.847,0.905
7.848,0.908
7.849,0.905
7.85,0.899
7.851,0.902
7.852,0.899
7.853,0.889
7.854,0.892
7.855,0.899
7.856,0.895
7.857,0.899
7.858,0.892
7.859,0.892
7.86,0.892
7.861,0.905
7.862,0.899
7.863,0.895
7.864,0.905
7.865,0.899
7.866,0.899
7.867,0.899
7.868,0.895
7.869,0.899
7.87,0.895
7.871,0.899
7.872,0.892
7.873,0.889
7.874,0.905
7.875,0.895
7.876,0.879
7.877,0.885
7.878,0.905
7.879,0.892
7.88,0.886
7.881,0.898
7.882,0.899
7.883,0.892
7.884,0.895
7.885,0.899
7.886,0.895
7.887,0.902
7.888,0.895
7.889,0.899
7.89,0.902
7.891,0.895
7.892,0.899
7.893,0.886
7.894,0.895
7.895,0.912
7.896,0.889
7.897,0.885
7.898,0.905
7.899,0.892
7.9,0.895
7.901,0.889
7.902,0.899
7.903,0.899
7.904,0.905
7.905,0.905
7.906,0.912
7.907,0.905
7.908,0.915
7.909,0.899
7.91,0.899
7.911,0.912
7.912,0.912
7.913,0.902
7.914,0.895
7.915,0.908
7.916,0.908
7.917,0.899
7.918,0.899
7.919,0.905
7.92,0.912
7.921,0.908
7.922,0.908
7.923,0.915
7.924,0.912
7.925,0.928
7.926,0.909
7.927,0.902
7.928,0.918
7.929,0.918
7.93,0.899
7.931,0.918
7.932,0.915
7.933,0.918
7.934,0.902
7.935,0.908
7.936,0.912
7.937,0.912
7.938,0.912
7.939,0.912
7.94,0.915
7.941,0.918
7.942,0.918
7.943,0.918
7.944,0.912
7.945,0.915
7.946,0.918
7.947,0.918
7.948,0.918
7.949,0.922
7.95,0.915
7.951,0.912
7.952,0.915
7.953,0.918
7.954,0.922
7.955,0.915
7.956,0.905
7.957,0.915
7.958,0.915
7.959,0.918
7.96,0.902
7.961,0.902
7.962,0.908
7.963,0.921
7.964,0.909
7.965,0.915
7.966,0.922
7.967,0.925
7.968,0.918
7.969,0.922
7.97,0.918
7.971,0.915
7.972,0.915
7.973,0.909
7.974,0.915
7.975,0.915
7.976,0.915
7.977,0.902
7.978,0.902
7.979,0.905
7.98,0.908
7.981,0.892
7.982,0.908
7.983,0.905
7.984,0.902
7.985,0.899
7.986,0.908
7.987,0.905
7.988,0.905
7.989,0.905
7.99,0.895
7.991,0.895
7.992,0.902
7.993,0.905
7.994,0.886
7.995,0.885
7.996,0.895
7.997,0.889
7.998,0.885
7.999,0.885
8,0.889
8.001,0.889
8.002,0.899
8.003,0.892
8.004,0.886
8.005,0.885
8.006,0.892
8.007,0.892
8.008,0.892
8.009,0.892
8.01,0.892
8.011,0.889
8.012,0.879
8.013,0.885
8.014,0.895
8.015,0.886
8.016,0.882
8.017,0.892
8.018,0.886
8.019,0.869
8.02,0.879
8.021,0.889
8.022,0.879
8.023,0.885
8.024,0.889
8.025,0.879
8.026,0.876
8.027,0.892
8.028,0.879
8.029,0.876
8.03,0.882
8.031,0.879
8.032,0.872
8.033,0.882
8.034,0.885
8.035,0.882
8.036,0.872
8.037,0.876
8.038,0.876
8.039,0.869
8.04,0.876
8.041,0.866
8.042,0.869
8.043,0.879
8.044,0.879
8.045,0.869
8.046,0.866
8.047,0.882
8.048,0.889
8.049,0.879
8.05,0.892
8.051,0.886
8.052,0.872
8.053,0.866
8.054,0.879
8.055,0.869
8.056,0.869
8.057,0.869
8.058,0.859
8.059,0.866
8.06,0.872
8.061,0.879
8.062,0.863
8.063,0.866
8.064,0.876
8.065,0.869
8.066,0.869
8.067,0.872
8.068,0.872
8.069,0.879
8.07,0.869
8.071,0.872
8.072,0.869
8.073,0.866
8.074,0.882
8.075,0.866
8.076,0.853
8.077,0.866
8.078,0.879
8.079,0.866
8.08,0.866
8.081,0.866
8.082,0.862
8.083,0.866
8.084,0.869
8.085,0.879
8.086,0.869
8.087,0.863
8.088,0.879
8.089,0.872
8.09,0.872
8.091,0.876
8.092,0.863
8.093,0.866
8.094,0.872
8.095,0.879
8.096,0.866
8.097,0.853
8.098,0.866
8.099,0.879
8.1,0.866
8.101,0.856
8.102,0.866
8.103,0.866
8.104,0.853
8.105,0.862
8.106,0.859
8.107,0.866
8.108,0.856
8.109,0.866
8.11,0.866
8.111,0.866
8.112,0.869
8.113,0.859
8.114,0.853
8.115,0.869
8.116,0.885
8.117,0.866
8.118,0.859
8.119,0.875
8.12,0.872
8.121,0.879
8.122,0.885
8.123,0.895
8.124,0.892
8.125,0.905
8.126,0.912
8.127,0.915
8.128,0.928
8.129,0.931
8.13,0.935
8.131,0.931
8.132,0.951
8.133,0.951
8.134,0.938
8.135,0.948
8.136,0.958
8.137,0.964
8.138,0.955
8.139,0.964
8.14,0.984
8.141,0.984
8.142,0.987
8.143,0.981
8.144,0.981
8.145,0.981
8.146,1.004
8.147,0.991
8.148,0.987
8.149,1.004
8.15,1.01
8.151,1.007
8.152,1.023
8.153,1.023
8.154,1.023
8.155,1.02
8.156,1.017
8.157,1.02
8.158,1.02
8.159,1.017
8.16,0.994
8.161,0.987
8.162,0.997
8.163,1.013
8.164,1.01
8.165,1.007
8.166,1.02
8.167,1.023
8.168,1.017
8.169,1.027
8.17,1.03
8.171,1.037
8.172,1.02
8.173,1.027
8.174,1.02
8.175,1.01
8.176,1.001
8.177,1.004
8.178,0.987
8.179,1
8.18,1
8.181,0.978
8.182,0.961
8.183,0.961
8.184,0.948
8.185,0.935
8.186,0.935
8.187,0.925
8.188,0.909
8.189,0.899
8.19,0.889
8.191,0.892
8.192,0.889
8.193,0.899
8.194,0.873
8.195,0.859
8.196,0.869
8.197,0.869
8.198,0.853
8.199,0.859
8.2,0.853
8.201,0.843
8.202,0.839
8.203,0.846
8.204,0.843
8.205,0.836
8.206,0.826
8.207,0.826
8.208,0.826
8.209,0.833
8.21,0.826
8.211,0.807
8.212,0.794
8.213,0.81
8.214,0.813
8.215,0.807
8.216,0.813
8.217,0.807
8.218,0.8
8.219,0.794
8.22,0.797
8.221,0.794
8.222,0.793
8.223,0.803
8.224,0.794
8.225,0.797
8.226,0.794
8.227,0.803
8.228,0.794
8.229,0.797
8.23,0.803
8.231,0.79
8.232,0.784
8.233,0.787
8.234,0.793
8.235,0.787
8.236,0.797
8.237,0.79
8.238,0.777
8.239,0.787
8.24,0.8
8.241,0.79
8.242,0.777
8.243,0.787
8.244,0.803
8.245,0.787
8.246,0.797
8.247,0.79
8.248,0.797
8.249,0.794
8.25,0.8
8.251,0.807
8.252,0.8
8.253,0.797
8.254,0.797
8.255,0.794
8.256,0.784
8.257,0.803
8.258,0.787
8.259,0.784
8.26,0.797
8.261,0.794
8.262,0.8
8.263,0.8
8.264,0.803
8.265,0.8
8.266,0.8
8.267,0.803
8.268,0.807
8.269,0.807
8.27,0.833
8.271,0.82
8.272,0.83
8.273,0.839
8.274,0.869
8.275,0.872
8.276,0.911
8.277,0.935
8.278,0.961
8.279,0.981
8.28,1.013
8.281,1.046
8.282,1.053
8.283,1.076
8.284,1.092
8.285,1.122
8.286,1.135
8.287,1.135
8.288,1.116
8.289,1.141
8.29,1.148
8.291,1.148
8.292,1.116
8.293,1.08
8.294,1.057
8.295,1.024
8.296,0.971
8.297,0.899
8.298,0.85
8.299,0.794
8.3,0.738
8.301,0.66
8.302,0.594
8.303,0.531
8.304,0.443
8.305,0.387
8.306,0.347
8.307,0.317
8.308,0.288
8.309,0.235
8.31,0.183
8.311,0.147
8.312,0.127
8.313,0.11
8.314,0.074
8.315,0.054
8.316,0.038
8.317,0.022
8.318,0.031
8.319,0.057
8.32,0.11
8.321,0.162
8.322,0.208
8.323,0.27
8.324,0.326
8.325,0.35
8.326,0.392
8.327,0.428
8.328,0.468
8.329,0.491
8.33,0.524
8.331,0.547
8.332,0.576
8.333,0.612
8.334,0.639
8.335,0.642
8.336,0.672
8.337,0.691
8.338,0.718
8.339,0.718
8.34,0.744
8.341,0.767
8.342,0.777
8.343,0.793
8.344,0.819
8.345,0.83
8.346,0.833
8.347,0.852
8.348,0.846
8.349,0.853
8.35,0.862
8.351,0.885
8.352,0.859
8.353,0.866
8.354,0.869
8.355,0.866
8.356,0.859
8.357,0.872
8.358,0.856
8.359,0.872
8.36,0.872
8.361,0.866
8.362,0.866
8.363,0.872
8.364,0.879
8.365,0.879
8.366,0.869
8.367,0.892
8.368,0.882
8.369,0.882
8.37,0.882
8.371,0.892
8.372,0.892
8.373,0.879
8.374,0.882
8.375,0.885
8.376,0.885
8.377,0.892
8.378,0.882
8.379,0.879
8.38,0.892
8.381,0.902
8.382,0.882
8.383,0.895
8.384,0.899
8.385,0.902
8.386,0.892
8.387,0.902
8.388,0.905
8.389,0.905
8.39,0.905
8.391,0.905
8.392,0.899
8.393,0.902
8.394,0.905
8.395,0.892
8.396,0.895
8.397,0.908
8.398,0.899
8.399,0.902
8.4,0.908
8.401,0.912
8.402,0.908
8.403,0.908
8.404,0.908
8.405,0.905
8.406,0.912
8.407,0.928
8.408,0.918
8.409,0.912
8.41,0.922
8.411,0.925
8.412,0.905
8.413,0.908
8.414,0.921
8.415,0.922
8.416,0.918
8.417,0.922
8.418,0.928
8.419,0.922
8.42,0.931
8.421,0.925
8.422,0.925
8.423,0.928
8.424,0.944
8.425,0.925
8.426,0.925
8.427,0.944
8.428,0.941
8.429,0.925
8.43,0.935
8.431,0.935
8.432,0.938
8.433,0.941
8.434,0.941
8.435,0.938
8.436,0.945
8.437,0.938
8.438,0.938
8.439,0.938
8.44,0.938
8.441,0.951
8.442,0.945
8.443,0.941
8.444,0.945
8.445,0.951
8.446,0.945
8.447,0.954
8.448,0.954
8.449,0.958
8.45,0.954
8.451,0.954
8.452,0.961
8.453,0.958
8.454,0.958
8.455,0.951
8.456,0.945
8.457,0.954
8.458,0.974
8.459,0.961
8.46,0.948
8.461,0.961
8.462,0.964
8.463,0.958
8.464,0.958
8.465,0.961
8.466,0.958
8.467,0.961
8.468,0.971
8.469,0.974
8.47,0.964
8.471,0.968
8.472,0.971
8.473,0.958
8.474,0.968
8.475,0.955
8.476,0.964
8.477,0.971
8.478,0.974
8.479,0.974
8.48,0.968
8.481,0.968
8.482,0.968
8.483,0.971
8.484,0.974
8.485,0.974
8.486,0.977
8.487,0.984
8.488,0.984
8.489,0.978
8.49,0.981
8.491,0.984
8.492,0.984
8.493,0.974
8.494,0.974
8.495,0.974
8.496,0.994
8.497,0.971
8.498,0.974
8.499,0.977
8.5,0.977
8.501,0.977
8.502,0.984
8.503,0.994
8.504,0.987
8.505,0.984
8.506,0.984
8.507,0.994
8.508,0.994
8.509,1
8.51,0.987
8.511,0.984
8.512,0.997
8.513,1.007
8.514,0.994
8.515,0.991
8.516,0.997
8.517,0.997
8.518,0.978
8.519,0.994
8.52,1.004
8.521,0.994
8.522,1
8.523,1.007
8.524,1.007
8.525,1.004
8.526,1.004
8.527,0.997
8.528,0.994
8.529,1.004
8.53,1.014
8.531,1.007
8.532,0.997
8.533,1.007
8.534,1.001
8.535,1
8.536,1
8.537,1
8.538,0.991
8.539,1.004
8.54,0.997
8.541,0.997
8.542,1.004
8.543,1.004
8.544,1.007
8.545,0.997
8.546,1.01
8.547,1.02
8.548,1.014
8.549,1.001
8.55,1.017
8.551,1.014
8.552,1.004
8.553,1.014
8.554,1.01
8.555,1.02
8.556,1.014
8.557,1.007
8.558,1.001
8.559,1.013
8.56,1.014
8.561,1.007
8.562,1.007
8.563,1.014
8.564,1.027
8.565,1.01
8.566,1.017
8.567,1.017
8.568,1.017
8.569,1.014
8.57,1.017
8.571,1.014
8.572,1.01
8.573,1.017
8.574,1.014
8.575,1.014
8.576,1.017
8.577,1.027
8.578,1.01
8.579,1.01
8.58,1.017
8.581,1.023
8.582,1.017
8.583,1.014
8.584,1.023
8.585,1.023
8.586,1.017
8.587,1.02
8.588,1.03
8.589,1.04
8.59,1.014
8.591,1.017
8.592,1.017
8.593,1.02
8.594,1.017
8.595,1.017
8.596,0.997
8.597,1.004
8.598,1.004
8.599,0.994
8.6,0.997
8.601,1
8.602,0.994
8.603,0.984
8.604,0.984
8.605,1
8.606,0.987
8.607,0.981
8.608,0.971
8.609,0.984
8.61,0.981
8.611,0.977
8.612,0.961
8.613,0.964
8.614,0.961
8.615,0.971
8.616,0.961
8.617,0.945
8.618,0.954
8.619,0.958
8.62,0.938
8.621,0.932
8.622,0.935
8.623,0.931
8.624,0.935
8.625,0.938
8.626,0.932
8.627,0.931
8.628,0.925
8.629,0.931
8.63,0.922
8.631,0.915
8.632,0.922
8.633,0.915
8.634,0.909
8.635,0.905
8.636,0.908
8.637,0.899
8.638,0.879
8.639,0.892
8.64,0.892
8.641,0.899
8.642,0.892
8.643,0.892
8.644,0.889
8.645,0.889
8.646,0.895
8.647,0.899
8.648,0.899
8.649,0.889
8.65,0.892
8.651,0.886
8.652,0.885
8.653,0.892
8.654,0.882
8.655,0.869
8.656,0.872
8.657,0.876
8.658,0.869
8.659,0.879
8.66,0.879
8.661,0.879
8.662,0.879
8.663,0.876
8.664,0.885
8.665,0.879
8.666,0.889
8.667,0.889
8.668,0.892
8.669,0.886
8.67,0.895
8.671,0.889
8.672,0.882
8.673,0.889
8.674,0.882
8.675,0.885
8.676,0.882
8.677,0.892
8.678,0.889
8.679,0.885
8.68,0.892
8.681,0.889
8.682,0.889
8.683,0.885
8.684,0.889
8.685,0.899
8.686,0.886
8.687,0.898
8.688,0.892
8.689,0.886
8.69,0.898
8.691,0.915
8.692,0.886
8.693,0.889
8.694,0.899
8.695,0.882
8.696,0.882
8.697,0.889
8.698,0.895
8.699,0.889
8.7,0.889
8.701,0.899
8.702,0.899
8.703,0.899
8.704,0.902
8.705,0.899
8.706,0.892
8.707,0.895
8.708,0.918
8.709,0.902
8.71,0.899
8.711,0.908
8.712,0.908
8.713,0.892
8.714,0.899
8.715,0.902
8.716,0.902
8.717,0.886
8.718,0.898
8.719,0.902
8.72,0.899
8.721,0.899
8.722,0.895
8.723,0.892
8.724,0.895
8.725,0.915
8.726,0.896
8.727,0.899
8.728,0.902
8.729,0.905
8.73,0.895
8.731,0.902
8.732,0.905
8.733,0.889
8.734,0.889
8.735,0.899
8.736,0.902
8.737,0.899
8.738,0.892
8.739,0.895
8.74,0.886
8.741,0.898
8.742,0.912
8.743,0.886
8.744,0.892
8.745,0.902
8.746,0.905
8.747,0.899
8.748,0.895
8.749,0.892
8.75,0.895
8.751,0.892
8.752,0.895
8.753,0.905
8.754,0.899
8.755,0.895
8.756,0.889
8.757,0.879
8.758,0.895
8.759,0.908
8.76,0.889
8.761,0.882
8.762,0.889
8.763,0.885
8.764,0.876
8.765,0.879
8.766,0.885
8.767,0.889
8.768,0.889
8.769,0.882
8.77,0.882
8.771,0.885
8.772,0.889
8.773,0.882
8.774,0.882
8.775,0.879
8.776,0.885
8.777,0.876
8.778,0.872
8.779,0.882
8.78,0.889
8.781,0.879
8.782,0.879
8.783,0.879
8.784,0.879
8.785,0.876
8.786,0.876
8.787,0.879
8.788,0.872
8.789,0.885
8.79,0.876
8.791,0.879
8.792,0.885
8.793,0.889
8.794,0.872
8.795,0.863
8.796,0.869
8.797,0.869
8.798,0.869
8.799,0.869
8.8,0.869
8.801,0.863
8.802,0.856
8.803,0.872
8.804,0.869
8.805,0.869
8.806,0.879
8.807,0.863
8.808,0.859
8.809,0.872
8.81,0.889
8.811,0.863
8.812,0.866
8.813,0.869
8.814,0.866
8.815,0.856
8.816,0.859
8.817,0.859
8.818,0.856
8.819,0.856
8.82,0.862
8.821,0.869
8.822,0.863
8.823,0.872
8.824,0.866
8.825,0.859
8.826,0.869
8.827,0.879
8.828,0.866
8.829,0.856
8.83,0.872
8.831,0.859
8.832,0.856
8.833,0.849
8.834,0.859
8.835,0.853
8.836,0.856
8.837,0.853
8.838,0.84
8.839,0.849
8.84,0.846
8.841,0.843
8.842,0.83
8.843,0.856
8.844,0.853
8.845,0.84
8.846,0.846
8.847,0.862
8.848,0.859
8.849,0.853
8.85,0.853
8.851,0.853
8.852,0.843
8.853,0.846
8.854,0.853
8.855,0.843
8.856,0.853
8.857,0.853
8.858,0.836
8.859,0.836
8.86,0.852
8.861,0.853
8.862,0.849
8.863,0.853
8.864,0.856
8.865,0.853
8.866,0.849
8.867,0.856
8.868,0.859
8.869,0.856
8.87,0.856
8.871,0.853
8.872,0.856
8.873,0.846
8.874,0.859
8.875,0.84
8.876,0.836
8.877,0.846
8.878,0.849
8.879,0.843
8.88,0.839
8.881,0.849
8.882,0.846
8.883,0.84
8.884,0.846
8.885,0.853
8.886,0.849
8.887,0.853
8.888,0.843
8.889,0.843
8.89,0.849
8.891,0.856
8.892,0.843
8.893,0.826
8.894,0.836
8.895,0.833
8.896,0.833
8.897,0.846
8.898,0.856
8.899,0.84
8.9,0.839
8.901,0.846
8.902,0.856
8.903,0.836
8.904,0.846
8.905,0.846
8.906,0.853
8.907,0.849
8.908,0.859
8.909,0.843
8.91,0.836
8.911,0.849
8.912,0.846
8.913,0.833
8.914,0.839
8.915,0.843
8.916,0.83
8.917,0.83
8.918,0.826
8.919,0.836
8.92,0.839
8.921,0.843
8.922,0.833
8.923,0.843
8.924,0.846
8.925,0.856
8.926,0.856
8.927,0.853
8.928,0.862
8.929,0.866
8.93,0.843
8.931,0.856
8.932,0.862
8.933,0.859
8.934,0.869
8.935,0.876
8.936,0.882
8.937,0.879
8.938,0.892
8.939,0.886
8.94,0.892
8.941,0.912
8.942,0.925
8.943,0.912
8.944,0.905
8.945,0.931
8.946,0.931
8.947,0.925
8.948,0.931
8.949,0.951
8.95,0.945
8.951,0.945
8.952,0.951
8.953,0.948
8.954,0.948
8.955,0.967
8.956,0.951
8.957,0.948
8.958,0.971
8.959,0.961
8.96,0.951
8.961,0.971
8.962,0.987
8.963,0.994
8.964,0.994
8.965,1.004
8.966,0.991
8.967,0.994
8.968,0.994
8.969,0.978
8.97,0.958
8.971,0.974
8.972,0.987
8.973,0.971
8.974,0.974
8.975,0.981
8.976,0.981
8.977,0.987
8.978,0.994
8.979,1
8.98,0.997
8.981,0.991
8.982,0.994
8.983,0.994
8.984,1
8.985,0.994
8.986,0.984
8.987,0.974
8.988,0.984
8.989,0.981
8.99,0.971
8.991,0.964
8.992,0.951
8.993,0.935
8.994,0.922
8.995,0.905
8.996,0.902
8.997,0.892
8.998,0.889
8.999,0.876
9,0.866
9.001,0.866
9.002,0.869
9.003,0.866
9.004,0.856
9.005,0.866
9.006,0.862
9.007,0.853
9.008,0.856
9.009,0.853
9.01,0.836
9.011,0.826
9.012,0.817
9.013,0.823
9.014,0.817
9.015,0.813
9.016,0.807
9.017,0.794
9.018,0.793
9.019,0.803
9.02,0.79
9.021,0.79
9.022,0.797
9.023,0.797
9.024,0.784
9.025,0.79
9.026,0.787
9.027,0.793
9.028,0.797
9.029,0.781
9.03,0.777
9.031,0.79
9.032,0.793
9.033,0.78
9.034,0.78
9.035,0.777
9.036,0.767
9.037,0.774
9.038,0.774
9.039,0.777
9.04,0.771
9.041,0.774
9.042,0.774
9.043,0.78
9.044,0.777
9.045,0.78
9.046,0.777
9.047,0.774
9.048,0.78
9.049,0.787
9.05,0.777
9.051,0.771
9.052,0.78
9.053,0.78
9.054,0.771
9.055,0.774
9.056,0.78
9.057,0.771
9.058,0.77
9.059,0.764
9.06,0.783
9.061,0.774
9.062,0.78
9.063,0.777
9.064,0.78
9.065,0.793
9.066,0.79
9.067,0.784
9.068,0.784
9.069,0.787
9.07,0.79
9.071,0.78
9.072,0.784
9.073,0.784
9.074,0.79
9.075,0.78
9.076,0.774
9.077,0.777
9.078,0.777
9.079,0.784
9.08,0.79
9.081,0.8
9.082,0.807
9.083,0.846
9.084,0.843
9.085,0.888
9.086,0.921
9.087,0.948
9.088,0.961
9.089,0.997
9.09,1.02
9.091,1.017
9.092,1.043
9.093,1.066
9.094,1.089
9.095,1.109
9.096,1.112
9.097,1.099
9.098,1.106
9.099,1.122
9.1,1.132
9.101,1.086
9.102,1.066
9.103,1.037
9.104,0.998
9.105,0.939
9.106,0.892
9.107,0.84
9.108,0.797
9.109,0.741
9.11,0.692
9.111,0.633
9.112,0.558
9.113,0.485
9.114,0.407
9.115,0.38
9.116,0.36
9.117,0.36
9.118,0.304
9.119,0.255
9.12,0.206
9.121,0.173
9.122,0.137
9.123,0.13
9.124,0.094
9.125,0.068
9.126,0.045
9.127,0.041
9.128,0.08
9.129,0.12
9.13,0.169
9.131,0.182
9.132,0.231
9.133,0.3
9.134,0.327
9.135,0.356
9.136,0.386
9.137,0.419
9.138,0.445
9.139,0.471
9.14,0.488
9.141,0.514
9.142,0.54
9.143,0.58
9.144,0.606
9.145,0.619
9.146,0.645
9.147,0.688
9.148,0.692
9.149,0.714
9.15,0.724
9.151,0.744
9.152,0.751
9.153,0.767
9.154,0.774
9.155,0.784
9.156,0.79
9.157,0.793
9.158,0.806
9.159,0.816
9.16,0.82
9.161,0.81
9.162,0.8
9.163,0.826
9.164,0.83
9.165,0.817
9.166,0.826
9.167,0.826
9.168,0.826
9.169,0.833
9.17,0.843
9.171,0.843
9.172,0.833
9.173,0.843
9.174,0.826
9.175,0.817
9.176,0.842
9.177,0.846
9.178,0.836
9.179,0.836
9.18,0.839
9.181,0.846
9.182,0.843
9.183,0.846
9.184,0.846
9.185,0.849
9.186,0.853
9.187,0.856
9.188,0.849
9.189,0.853
9.19,0.862
9.191,0.843
9.192,0.846
9.193,0.859
9.194,0.853
9.195,0.843
9.196,0.856
9.197,0.846
9.198,0.849
9.199,0.846
9.2,0.849
9.201,0.859
9.202,0.856
9.203,0.859
9.204,0.849
9.205,0.856
9.206,0.869
9.207,0.879
9.208,0.859
9.209,0.856
9.21,0.866
9.211,0.872
9.212,0.859
9.213,0.862
9.214,0.872
9.215,0.859
9.216,0.856
9.217,0.856
9.218,0.859
9.219,0.849
9.22,0.859
9.221,0.853
9.222,0.853
9.223,0.856
9.224,0.872
9.225,0.863
9.226,0.872
9.227,0.863
9.228,0.866
9.229,0.862
9.23,0.869
9.231,0.872
9.232,0.872
9.233,0.879
9.234,0.863
9.235,0.856
9.236,0.862
9.237,0.882
9.238,0.863
9.239,0.866
9.24,0.872
9.241,0.889
9.242,0.863
9.243,0.872
9.244,0.876
9.245,0.882
9.246,0.885
9.247,0.882
9.248,0.879
9.249,0.882
9.25,0.879
9.251,0.889
9.252,0.882
9.253,0.882
9.254,0.882
9.255,0.879
9.256,0.869
9.257,0.882
9.258,0.885
9.259,0.872
9.26,0.879
9.261,0.889
9.262,0.863
9.263,0.879
9.264,0.895
9.265,0.892
9.266,0.879
9.267,0.869
9.268,0.889
9.269,0.879
9.27,0.876
9.271,0.882
9.272,0.885
9.273,0.876
9.274,0.882
9.275,0.885
9.276,0.872
9.277,0.879
9.278,0.895
9.279,0.882
9.28,0.879
9.281,0.885
9.282,0.885
9.283,0.892
9.284,0.895
9.285,0.895
9.286,0.895
9.287,0.899
9.288,0.902
9.289,0.879
9.29,0.889
9.291,0.895
9.292,0.895
9.293,0.882
9.294,0.885
9.295,0.898
9.296,0.892
9.297,0.882
9.298,0.889
9.299,0.892
9.3,0.886
9.301,0.898
9.302,0.892
9.303,0.889
9.304,0.889
9.305,0.902
9.306,0.889
9.307,0.892
9.308,0.905
9.309,0.902
9.31,0.882
9.311,0.902
9.312,0.905
9.313,0.892
9.314,0.892
9.315,0.879
9.316,0.889
9.317,0.902
9.318,0.895
9.319,0.889
9.32,0.892
9.321,0.902
9.322,0.908
9.323,0.892
9.324,0.899
9.325,0.899
9.326,0.892
9.327,0.895
9.328,0.899
9.329,0.908
9.33,0.902
9.331,0.905
9.332,0.908
9.333,0.902
9.334,0.902
9.335,0.902
9.336,0.895
9.337,0.895
9.338,0.908
9.339,0.905
9.34,0.886
9.341,0.902
9.342,0.892
9.343,0.899
9.344,0.899
9.345,0.908
9.346,0.908
9.347,0.908
9.348,0.905
9.349,0.905
9.35,0.899
9.351,0.902
9.352,0.912
9.353,0.895
9.354,0.899
9.355,0.915
9.356,0.905
9.357,0.902
9.358,0.912
9.359,0.915
9.36,0.909
9.361,0.912
9.362,0.912
9.363,0.899
9.364,0.918
9.365,0.925
9.366,0.912
9.367,0.908
9.368,0.925
9.369,0.918
9.37,0.922
9.371,0.912
9.372,0.918
9.373,0.912
9.374,0.915
9.375,0.922
9.376,0.915
9.377,0.918
9.378,0.925
9.379,0.925
9.38,0.922
9.381,0.925
9.382,0.938
9.383,0.932
9.384,0.931
9.385,0.944
9.386,0.932
9.387,0.931
9.388,0.931
9.389,0.941
9.39,0.945
9.391,0.932
9.392,0.925
9.393,0.935
9.394,0.931
9.395,0.951
9.396,0.938
9.397,0.919
9.398,0.931
9.399,0.948
9.4,0.941
9.401,0.938
9.402,0.938
9.403,0.925
9.404,0.918
9.405,0.931
9.406,0.944
9.407,0.938
9.408,0.935
9.409,0.931
9.41,0.925
9.411,0.931
9.412,0.935
9.413,0.915
9.414,0.905
9.415,0.912
9.416,0.902
9.417,0.895
9.418,0.905
9.419,0.905
9.42,0.899
9.421,0.889
9.422,0.895
9.423,0.892
9.424,0.892
9.425,0.899
9.426,0.889
9.427,0.876
9.428,0.879
9.429,0.889
9.43,0.866
9.431,0.859
9.432,0.872
9.433,0.856
9.434,0.846
9.435,0.853
9.436,0.859
9.437,0.843
9.438,0.856
9.439,0.843
9.44,0.83
9.441,0.843
9.442,0.843
9.443,0.833
9.444,0.83
9.445,0.836
9.446,0.843
9.447,0.817
9.448,0.829
9.449,0.826
9.45,0.826
9.451,0.817
9.452,0.829
9.453,0.826
9.454,0.82
9.455,0.83
9.456,0.817
9.457,0.807
9.458,0.813
9.459,0.81
9.46,0.816
9.461,0.8
9.462,0.813
9.463,0.816
9.464,0.81
9.465,0.816
9.466,0.813
9.467,0.813
9.468,0.803
9.469,0.8
9.47,0.82
9.471,0.82
9.472,0.813
9.473,0.813
9.474,0.81
9.475,0.816
9.476,0.823
9.477,0.81
9.478,0.8
9.479,0.81
9.48,0.807
9.481,0.807
9.482,0.803
9.483,0.813
9.484,0.813
9.485,0.813
9.486,0.816
9.487,0.813
9.488,0.82
9.489,0.826
9.49,0.817
9.491,0.813
9.492,0.826
9.493,0.82
9.494,0.813
9.495,0.816
9.496,0.826
9.497,0.813
9.498,0.8
9.499,0.81
9.5,0.816
9.501,0.813
9.502,0.813
9.503,0.81
9.504,0.803
9.505,0.813
9.506,0.829
9.507,0.813
9.508,0.807
9.509,0.826
9.51,0.83
9.511,0.797
9.512,0.813
9.513,0.813
9.514,0.807
9.515,0.813
9.516,0.82
9.517,0.826
9.518,0.823
9.519,0.813
9.52,0.807
9.521,0.813
9.522,0.813
9.523,0.82
9.524,0.826
9.525,0.823
9.526,0.833
9.527,0.83
9.528,0.817
9.529,0.823
9.53,0.826
9.531,0.833
9.532,0.81
9.533,0.803
9.534,0.816
9.535,0.816
9.536,0.813
9.537,0.81
9.538,0.803
9.539,0.81
9.54,0.829
9.541,0.817
9.542,0.82
9.543,0.82
9.544,0.826
9.545,0.81
9.546,0.82
9.547,0.826
9.548,0.82
9.549,0.807
9.55,0.816
9.551,0.826
9.552,0.813
9.553,0.82
9.554,0.82
9.555,0.826
9.556,0.823
9.557,0.826
9.558,0.82
9.559,0.817
9.56,0.803
9.561,0.826
9.562,0.817
9.563,0.816
9.564,0.82
9.565,0.823
9.566,0.807
9.567,0.82
9.568,0.813
9.569,0.813
9.57,0.81
9.571,0.807
9.572,0.8
9.573,0.807
9.574,0.826
9.575,0.81
9.576,0.794
9.577,0.81
9.578,0.816
9.579,0.787
9.58,0.806
9.581,0.807
9.582,0.807
9.583,0.794
9.584,0.8
9.585,0.81
9.586,0.813
9.587,0.803
9.588,0.807
9.589,0.803
9.59,0.807
9.591,0.82
9.592,0.807
9.593,0.794
9.594,0.806
9.595,0.813
9.596,0.79
9.597,0.8
9.598,0.794
9.599,0.803
9.6,0.794
9.601,0.8
9.602,0.8
9.603,0.803
9.604,0.8
9.605,0.81
9.606,0.807
9.607,0.8
9.608,0.8
9.609,0.803
9.61,0.781
9.611,0.797
9.612,0.807
9.613,0.787
9.614,0.787
9.615,0.79
9.616,0.8
9.617,0.784
9.618,0.79
9.619,0.8
9.62,0.787
9.621,0.784
9.622,0.78
9.623,0.793
9.624,0.793
9.625,0.803
9.626,0.794
9.627,0.78
9.628,0.8
9.629,0.794
9.63,0.787
9.631,0.79
9.632,0.787
9.633,0.78
9.634,0.787
9.635,0.784
9.636,0.787
9.637,0.784
9.638,0.787
9.639,0.787
9.64,0.777
9.641,0.784
9.642,0.8
9.643,0.784
9.644,0.774
9.645,0.79
9.646,0.797
9.647,0.781
9.648,0.787
9.649,0.787
9.65,0.787
9.651,0.784
9.652,0.793
9.653,0.797
9.654,0.79
9.655,0.793
9.656,0.787
9.657,0.777
9.658,0.784
9.659,0.797
9.66,0.774
9.661,0.78
9.662,0.787
9.663,0.79
9.664,0.787
9.665,0.8
9.666,0.794
9.667,0.79
9.668,0.787
9.669,0.774
9.67,0.797
9.671,0.781
9.672,0.803
9.673,0.787
9.674,0.784
9.675,0.787
9.676,0.784
9.677,0.774
9.678,0.777
9.679,0.78
9.68,0.79
9.681,0.784
9.682,0.774
9.683,0.777
9.684,0.78
9.685,0.79
9.686,0.784
9.687,0.793
9.688,0.793
9.689,0.797
9.69,0.79
9.691,0.774
9.692,0.79
9.693,0.8
9.694,0.764
9.695,0.78
9.696,0.78
9.697,0.8
9.698,0.787
9.699,0.784
9.7,0.79
9.701,0.784
9.702,0.787
9.703,0.793
9.704,0.79
9.705,0.79
9.706,0.806
9.707,0.807
9.708,0.79
9.709,0.806
9.71,0.82
9.711,0.817
9.712,0.826
9.713,0.83
9.714,0.826
9.715,0.833
9.716,0.839
9.717,0.846
9.718,0.853
9.719,0.843
9.72,0.846
9.721,0.859
9.722,0.856
9.723,0.879
9.724,0.876
9.725,0.872
9.726,0.889
9.727,0.892
9.728,0.889
9.729,0.882
9.73,0.892
9.731,0.886
9.732,0.895
9.733,0.905
9.734,0.905
9.735,0.912
9.736,0.918
9.737,0.922
9.738,0.912
9.739,0.931
9.74,0.941
9.741,0.922
9.742,0.925
9.743,0.935
9.744,0.925
9.745,0.899
9.746,0.918
9.747,0.905
9.748,0.912
9.749,0.915
9.75,0.922
9.751,0.928
9.752,0.931
9.753,0.941
9.754,0.932
9.755,0.935
9.756,0.945
9.757,0.951
9.758,0.945
9.759,0.935
9.76,0.938
9.761,0.932
9.762,0.925
9.763,0.935
9.764,0.922
9.765,0.931
9.766,0.915
9.767,0.902
9.768,0.889
9.769,0.882
9.77,0.876
9.771,0.84
9.772,0.83
9.773,0.839
9.774,0.833
9.775,0.807
9.776,0.803
9.777,0.797
9.778,0.797
9.779,0.79
9.78,0.793
9.781,0.797
9.782,0.8
9.783,0.794
9.784,0.784
9.785,0.777
9.786,0.777
9.787,0.78
9.788,0.764
9.789,0.754
9.79,0.767
9.791,0.754
9.792,0.735
9.793,0.741
9.794,0.741
9.795,0.734
9.796,0.731
9.797,0.728
9.798,0.744
9.799,0.738
9.8,0.731
9.801,0.731
9.802,0.734
9.803,0.741
9.804,0.734
9.805,0.728
9.806,0.728
9.807,0.747
9.808,0.741
9.809,0.734
9.81,0.741
9.811,0.734
9.812,0.734
9.813,0.721
9.814,0.721
9.815,0.724
9.816,0.737
9.817,0.718
9.818,0.728
9.819,0.728
9.82,0.728
9.821,0.731
9.822,0.718
9.823,0.721
9.824,0.721
9.825,0.747
9.826,0.728
9.827,0.721
9.828,0.731
9.829,0.738
9.83,0.731
9.831,0.734
9.832,0.747
9.833,0.741
9.834,0.731
9.835,0.731
9.836,0.731
9.837,0.734
9.838,0.738
9.839,0.738
9.84,0.728
9.841,0.744
9.842,0.747
9.843,0.744
9.844,0.741
9.845,0.754
9.846,0.754
9.847,0.741
9.848,0.757
9.849,0.738
9.85,0.754
9.851,0.741
9.852,0.747
9.853,0.741
9.854,0.757
9.855,0.767
9.856,0.764
9.857,0.777
9.858,0.79
9.859,0.813
9.86,0.829
9.861,0.872
9.862,0.905
9.863,0.921
9.864,0.941
9.865,0.974
9.866,1.01
9.867,1.004
9.868,1.027
9.869,1.05
9.87,1.086
9.871,1.092
9.872,1.089
9.873,1.092
9.874,1.083
9.875,1.109
9.876,1.093
9.877,1.053
9.878,1.007
9.879,0.975
9.88,0.916
9.881,0.85
9.882,0.781
9.883,0.741
9.884,0.708
9.885,0.637
9.886,0.597
9.887,0.531
9.888,0.462
9.889,0.374
9.89,0.321
9.891,0.304
9.892,0.307
9.893,0.307
9.894,0.271
9.895,0.235
9.896,0.186
9.897,0.163
9.898,0.111
9.899,0.107
9.9,0.061
9.901,0.019
9.902,0.015
9.903,0.041
9.904,0.08
9.905,0.116
9.906,0.159
9.907,0.195
9.908,0.244
9.909,0.294
9.91,0.346
9.911,0.353
9.912,0.373
9.913,0.422
9.914,0.445
9.915,0.465
9.916,0.484
9.917,0.501
9.918,0.517
9.919,0.55
9.92,0.567
9.921,0.606
9.922,0.629
9.923,0.655
9.924,0.672
9.925,0.682
9.926,0.705
9.927,0.728
9.928,0.741
9.929,0.754
9.93,0.764
9.931,0.767
9.932,0.774
9.933,0.787
9.934,0.8
9.935,0.794
9.936,0.8
9.937,0.794
9.938,0.81
9.939,0.81
9.94,0.823
9.941,0.804
9.942,0.807
9.943,0.813
9.944,0.833
9.945,0.813
9.946,0.813
9.947,0.833
9.948,0.823
9.949,0.817
9.95,0.823
9.951,0.813
9.952,0.82
9.953,0.826
9.954,0.826
9.955,0.826
9.956,0.83
9.957,0.833
9.958,0.817
9.959,0.826
9.96,0.836
9.961,0.836
9.962,0.833
9.963,0.836
9.964,0.839
9.965,0.833
9.966,0.833
9.967,0.833
9.968,0.852
9.969,0.853
9.97,0.843
9.971,0.833
9.972,0.823
9.973,0.82
9.974,0.852
9.975,0.833
9.976,0.833
9.977,0.843
9.978,0.846
9.979,0.833
9.98,0.839
9.981,0.843
9.982,0.839
9.983,0.843
9.984,0.843
9.985,0.849
9.986,0.849
9.987,0.853
9.988,0.846
9.989,0.836
9.99,0.859
9.991,0.859
9.992,0.843
9.993,0.839
9.994,0.852
9.995,0.856
9.996,0.843
9.997,0.849
9.998,0.849
9.999,0.843
10,0.846
10.001,0.846
10.002,0.853
10.003,0.853
10.004,0.869
10.005,0.869
10.006,0.859
10.007,0.866
10.008,0.876
10.009,0.863
10.01,0.856
10.011,0.862
10.012,0.872
10.013,0.859
10.014,0.853
10.015,0.866
10.016,0.862
10.017,0.856
10.018,0.866
10.019,0.869
10.02,0.866
10.021,0.866
10.022,0.879
10.023,0.876
10.024,0.879
10.025,0.882
10.026,0.879
10.027,0.876
10.028,0.895
10.029,0.895
10.03,0.882
10.031,0.889
10.032,0.885
10.033,0.872
10.034,0.879
10.035,0.879
10.036,0.889
10.037,0.879
10.038,0.885
10.039,0.889
10.04,0.882
10.041,0.895
10.042,0.902
10.043,0.889
10.044,0.892
10.045,0.908
10.046,0.905
10.047,0.902
10.048,0.905
10.049,0.905
10.05,0.899
10.051,0.892
10.052,0.915
10.053,0.905
10.054,0.908
10.055,0.905
10.056,0.905
10.057,0.905
10.058,0.908
10.059,0.912
10.06,0.899
10.061,0.899
10.062,0.912
10.063,0.912
10.064,0.905
10.065,0.902
10.066,0.912
10.067,0.915
10.068,0.905
10.069,0.912
10.07,0.912
10.071,0.915
10.072,0.905
10.073,0.908
10.074,0.912
10.075,0.912
10.076,0.925
10.077,0.909
10.078,0.902
10.079,0.921
10.08,0.928
10.081,0.902
10.082,0.902
10.083,0.918
10.084,0.918
10.085,0.912
10.086,0.918
10.087,0.918
10.088,0.925
10.089,0.922
10.09,0.912
10.091,0.918
10.092,0.912
10.093,0.918
10.094,0.909
10.095,0.908
10.096,0.925
10.097,0.935
10.098,0.905
10.099,0.905
10.1,0.915
10.101,0.922
10.102,0.909
10.103,0.918
10.104,0.922
10.105,0.928
10.106,0.918
10.107,0.931
10.108,0.925
10.109,0.928
10.11,0.922
10.111,0.909
10.112,0.905
10.113,0.921
10.114,0.931
10.115,0.909
10.116,0.902
10.117,0.918
10.118,0.905
10.119,0.905
10.12,0.912
10.121,0.925
10.122,0.912
10.123,0.905
10.124,0.912
10.125,0.915
10.126,0.922
10.127,0.935
10.128,0.915
10.129,0.918
10.13,0.922
10.131,0.935
10.132,0.909
10.133,0.908
10.134,0.931
10.135,0.915
10.136,0.905
10.137,0.918
10.138,0.915
10.139,0.912
10.14,0.908
10.141,0.915
10.142,0.915
10.143,0.912
10.144,0.922
10.145,0.918
10.146,0.912
10.147,0.925
10.148,0.938
10.149,0.915
10.15,0.912
10.151,0.925
10.152,0.931
10.153,0.922
10.154,0.925
10.155,0.925
10.156,0.915
10.157,0.922
10.158,0.931
10.159,0.925
10.16,0.915
10.161,0.915
10.162,0.925
10.163,0.931
10.164,0.935
10.165,0.935
10.166,0.931
