0,0.807
0.001,0.839
0.002,0.833
0.003,0.846
0.004,0.846
0.005,0.849
0.006,0.846
0.007,0.849
0.008,0.882
0.009,0.872
0.01,0.866
0.011,0.879
0.012,0.856
0.013,0.84
0.014,0.839
0.015,0.826
0.016,0.82
0.017,0.836
0.018,0.846
0.019,0.827
0.02,0.826
0.021,0.836
0.022,0.846
0.023,0.869
0.024,0.859
0.025,0.849
0.026,0.879
0.027,0.876
0.028,0.859
0.029,0.859
0.03,0.892
0.031,0.853
0.032,0.817
0.033,0.839
0.034,0.826
0.035,0.826
0.036,0.833
0.037,0.83
0.038,0.794
0.039,0.813
0.04,0.82
0.041,0.813
0.042,0.82
0.043,0.826
0.044,0.826
0.045,0.836
0.046,0.833
0.047,0.839
0.048,0.846
0.049,0.846
0.05,0.846
0.051,0.833
0.052,0.83
0.053,0.83
0.054,0.81
0.055,0.813
0.056,0.784
0.057,0.797
0.058,0.803
0.059,0.794
0.06,0.8
0.061,0.794
0.062,0.8
0.063,0.8
0.064,0.813
0.065,0.826
0.066,0.82
0.067,0.82
0.068,0.83
0.069,0.813
0.07,0.807
0.071,0.79
0.072,0.8
0.073,0.807
0.074,0.797
0.075,0.794
0.076,0.79
0.077,0.819
0.078,0.81
0.079,0.794
0.08,0.8
0.081,0.81
0.082,0.826
0.083,0.823
0.084,0.797
0.085,0.794
0.086,0.806
0.087,0.82
0.088,0.81
0.089,0.807
0.09,0.81
0.091,0.797
0.092,0.807
0.093,0.8
0.094,0.787
0.095,0.78
0.096,0.793
0.097,0.8
0.098,0.761
0.099,0.774
0.1,0.79
0.101,0.797
0.102,0.79
0.103,0.78
0.104,0.797
0.105,0.81
0.106,0.803
0.107,0.8
0.108,0.787
0.109,0.826
0.11,0.813
0.111,0.79
0.112,0.777
0.113,0.777
0.114,0.79
0.115,0.774
0.116,0.787
0.117,0.774
0.118,0.793
0.119,0.793
0.12,0.777
0.121,0.78
0.122,0.8
0.123,0.787
0.124,0.806
0.125,0.787
0.126,0.777
0.127,0.8
0.128,0.813
0.129,0.813
0.13,0.787
0.131,0.8
0.132,0.8
0.133,0.79
0.134,0.793
0.135,0.784
0.136,0.777
0.137,0.777
0.138,0.761
0.139,0.774
0.14,0.774
0.141,0.79
0.142,0.777
0.143,0.79
0.144,0.803
0.145,0.8
0.146,0.81
0.147,0.836
0.148,0.817
0.149,0.813
0.15,0.816
0.151,0.803
0.152,0.813
0.153,0.807
0.154,0.774
0.155,0.771
0.156,0.783
0.157,0.784
0.158,0.767
0.159,0.774
0.16,0.758
0.161,0.774
0.162,0.771
0.163,0.78
0.164,0.787
0.165,0.79
0.166,0.8
0.167,0.787
0.168,0.78
0.169,0.793
0.17,0.8
0.171,0.784
0.172,0.774
0.173,0.764
0.174,0.764
0.175,0.754
0.176,0.751
0.177,0.748
0.178,0.757
0.179,0.757
0.18,0.754
0.181,0.787
0.182,0.78
0.183,0.777
0.184,0.79
0.185,0.78
0.186,0.797
0.187,0.8
0.188,0.813
0.189,0.807
0.19,0.787
0.191,0.787
0.192,0.774
0.193,0.79
0.194,0.78
0.195,0.78
0.196,0.777
0.197,0.767
0.198,0.77
0.199,0.767
0.2,0.77
0.201,0.78
0.202,0.79
0.203,0.826
0.204,0.81
0.205,0.781
0.206,0.784
0.207,0.797
0.208,0.794
0.209,0.793
0.21,0.8
0.211,0.784
0.212,0.774
0.213,0.777
0.214,0.761
0.215,0.748
0.216,0.76
0.217,0.757
0.218,0.757
0.219,0.764
0.22,0.767
0.221,0.78
0.222,0.787
0.223,0.797
0.224,0.784
0.225,0.806
0.226,0.803
0.227,0.787
0.228,0.803
0.229,0.797
0.23,0.797
0.231,0.784
0.232,0.771
0.233,0.793
0.234,0.754
0.235,0.78
0.236,0.774
0.237,0.761
0.238,0.764
0.239,0.767
0.24,0.774
0.241,0.777
0.242,0.78
0.243,0.784
0.244,0.787
0.245,0.79
0.246,0.784
0.247,0.793
0.248,0.81
0.249,0.803
0.25,0.803
0.251,0.79
0.252,0.793
0.253,0.797
0.254,0.787
0.255,0.784
0.256,0.761
0.257,0.767
0.258,0.767
0.259,0.761
0.26,0.764
0.261,0.764
0.262,0.777
0.263,0.784
0.264,0.787
0.265,0.784
0.266,0.761
0.267,0.8
0.268,0.797
0.269,0.784
0.27,0.8
0.271,0.777
0.272,0.784
0.273,0.787
0.274,0.774
0.275,0.777
0.276,0.793
0.277,0.777
0.278,0.764
0.279,0.761
0.28,0.787
0.281,0.787
0.282,0.8
0.283,0.794
0.284,0.784
0.285,0.793
0.286,0.79
0.287,0.81
0.288,0.816
0.289,0.807
0.29,0.816
0.291,0.803
0.292,0.81
0.293,0.813
0.294,0.803
0.295,0.833
0.296,0.839
0.297,0.839
0.298,0.836
0.299,0.846
0.3,0.869
0.301,0.892
0.302,0.899
0.303,0.899
0.304,0.915
0.305,0.918
0.306,0.925
0.307,0.931
0.308,0.951
0.309,0.932
0.31,0.909
0.311,0.912
0.312,0.915
0.313,0.909
0.314,0.925
0.315,0.925
0.316,0.931
0.317,0.957
0.318,0.954
0.319,0.967
0.32,0.977
0.321,0.971
0.322,0.984
0.323,0.968
0.324,0.955
0.325,0.941
0.326,0.951
0.327,0.945
0.328,0.945
0.329,0.938
0.33,0.925
0.331,0.938
0.332,0.951
0.333,0.948
0.334,0.941
0.335,0.919
0.336,0.931
0.337,0.918
0.338,0.905
0.339,0.912
0.34,0.902
0.341,0.925
0.342,0.918
0.343,0.905
0.344,0.931
0.345,0.918
0.346,0.925
0.347,0.892
0.348,0.895
0.349,0.889
0.35,0.856
0.351,0.862
0.352,0.866
0.353,0.807
0.354,0.829
0.355,0.817
0.356,0.813
0.357,0.803
0.358,0.807
0.359,0.8
0.36,0.79
0.361,0.826
0.362,0.82
0.363,0.813
0.364,0.82
0.365,0.817
0.366,0.816
0.367,0.826
0.368,0.826
0.369,0.813
0.37,0.79
0.371,0.787
0.372,0.774
0.373,0.754
0.374,0.757
0.375,0.731
0.376,0.741
0.377,0.734
0.378,0.744
0.379,0.741
0.38,0.731
0.381,0.744
0.382,0.731
0.383,0.76
0.384,0.767
0.385,0.774
0.386,0.777
0.387,0.758
0.388,0.767
0.389,0.777
0.39,0.777
0.391,0.764
0.392,0.751
0.393,0.774
0.394,0.761
0.395,0.744
0.396,0.738
0.397,0.741
0.398,0.741
0.399,0.731
0.4,0.738
0.401,0.738
0.402,0.741
0.403,0.754
0.404,0.754
0.405,0.767
0.406,0.783
0.407,0.79
0.408,0.806
0.409,0.823
0.41,0.83
0.411,0.839
0.412,0.846
0.413,0.853
0.414,0.879
0.415,0.905
0.416,0.899
0.417,0.908
0.418,0.951
0.419,0.984
0.42,1.02
0.421,1.069
0.422,1.105
0.423,1.138
0.424,1.174
0.425,1.194
0.426,1.214
0.427,1.217
0.428,1.24
0.429,1.26
0.43,1.273
0.431,1.257
0.432,1.227
0.433,1.234
0.434,1.234
0.435,1.247
0.436,1.237
0.437,1.25
0.438,1.247
0.439,1.234
0.44,1.224
0.441,1.214
0.442,1.234
0.443,1.224
0.444,1.136
0.445,1.083
0.446,1.018
0.447,1.007
0.448,0.961
0.449,0.893
0.45,0.876
0.451,0.824
0.452,0.774
0.453,0.731
0.454,0.682
0.455,0.636
0.456,0.616
0.457,0.59
0.458,0.557
0.459,0.528
0.46,0.514
0.461,0.514
0.462,0.498
0.463,0.436
0.464,0.396
0.465,0.389
0.466,0.363
0.467,0.357
0.468,0.379
0.469,0.396
0.47,0.422
0.471,0.458
0.472,0.471
0.473,0.468
0.474,0.475
0.475,0.481
0.476,0.481
0.477,0.491
0.478,0.494
0.479,0.498
0.48,0.514
0.481,0.547
0.482,0.554
0.483,0.567
0.484,0.599
0.485,0.619
0.486,0.629
0.487,0.668
0.488,0.682
0.489,0.705
0.49,0.705
0.491,0.721
0.492,0.737
0.493,0.731
0.494,0.741
0.495,0.754
0.496,0.757
0.497,0.787
0.498,0.784
0.499,0.79
0.5,0.787
0.501,0.777
0.502,0.784
0.503,0.793
0.504,0.803
0.505,0.8
0.506,0.8
0.507,0.816
0.508,0.81
0.509,0.826
0.51,0.804
0.511,0.797
0.512,0.8
0.513,0.807
0.514,0.803
0.515,0.781
0.516,0.777
0.517,0.784
0.518,0.793
0.519,0.787
0.52,0.784
0.521,0.777
0.522,0.787
0.523,0.8
0.524,0.8
0.525,0.82
0.526,0.839
0.527,0.817
0.528,0.826
0.529,0.82
0.53,0.807
0.531,0.82
0.532,0.81
0.533,0.79
0.534,0.8
0.535,0.794
0.536,0.803
0.537,0.79
0.538,0.8
0.539,0.8
0.54,0.794
0.541,0.819
0.542,0.82
0.543,0.833
0.544,0.833
0.545,0.823
0.546,0.83
0.547,0.843
0.548,0.833
0.549,0.823
0.55,0.836
0.551,0.826
0.552,0.807
0.553,0.81
0.554,0.813
0.555,0.81
0.556,0.826
0.557,0.82
0.558,0.8
0.559,0.794
0.56,0.803
0.561,0.82
0.562,0.823
0.563,0.843
0.564,0.83
0.565,0.817
0.566,0.833
0.567,0.833
0.568,0.852
0.569,0.853
0.57,0.83
0.571,0.817
0.572,0.826
0.573,0.833
0.574,0.804
0.575,0.797
0.576,0.807
0.577,0.803
0.578,0.807
0.579,0.797
0.58,0.81
0.581,0.826
0.582,0.826
0.583,0.839
0.584,0.833
0.585,0.839
0.586,0.836
0.587,0.826
0.588,0.846
0.589,0.846
0.59,0.853
0.591,0.84
0.592,0.839
0.593,0.836
0.594,0.82
0.595,0.826
0.596,0.826
0.597,0.833
0.598,0.839
0.599,0.813
0.6,0.842
0.601,0.853
0.602,0.843
0.603,0.862
0.604,0.859
0.605,0.872
0.606,0.876
0.607,0.879
0.608,0.882
0.609,0.872
0.61,0.856
0.611,0.843
0.612,0.849
0.613,0.846
0.614,0.833
0.615,0.826
0.616,0.82
0.617,0.833
0.618,0.83
0.619,0.817
0.62,0.833
0.621,0.849
0.622,0.862
0.623,0.862
0.624,0.859
0.625,0.869
0.626,0.859
0.627,0.879
0.628,0.859
0.629,0.875
0.63,0.889
0.631,0.872
0.632,0.856
0.633,0.849
0.634,0.846
0.635,0.856
0.636,0.843
0.637,0.843
0.638,0.826
0.639,0.862
0.64,0.866
0.641,0.859
0.642,0.859
0.643,0.856
0.644,0.885
0.645,0.879
0.646,0.869
0.647,0.879
0.648,0.882
0.649,0.908
0.65,0.895
0.651,0.869
0.652,0.85
0.653,0.859
0.654,0.882
0.655,0.866
0.656,0.859
0.657,0.869
0.658,0.876
0.659,0.879
0.66,0.866
0.661,0.885
0.662,0.889
0.663,0.892
0.664,0.895
0.665,0.882
0.666,0.879
0.667,0.902
0.668,0.895
0.669,0.886
0.67,0.882
0.671,0.892
0.672,0.882
0.673,0.879
0.674,0.885
0.675,0.879
0.676,0.889
0.677,0.892
0.678,0.892
0.679,0.882
0.68,0.898
0.681,0.895
0.682,0.889
0.683,0.889
0.684,0.895
0.685,0.892
0.686,0.918
0.687,0.909
0.688,0.905
0.689,0.915
0.69,0.925
0.691,0.902
0.692,0.902
0.693,0.905
0.694,0.889
0.695,0.899
0.696,0.889
0.697,0.866
0.698,0.876
0.699,0.902
0.7,0.902
0.701,0.899
0.702,0.889
0.703,0.895
0.704,0.908
0.705,0.905
0.706,0.905
0.707,0.912
0.708,0.935
0.709,0.925
0.71,0.909
0.711,0.905
0.712,0.895
0.713,0.902
0.714,0.892
0.715,0.879
0.716,0.898
0.717,0.899
0.718,0.908
0.719,0.889
0.72,0.882
0.721,0.924
0.722,0.918
0.723,0.935
0.724,0.925
0.725,0.915
0.726,0.928
0.727,0.938
0.728,0.932
0.729,0.928
0.73,0.925
0.731,0.918
0.732,0.922
0.733,0.915
0.734,0.899
0.735,0.912
0.736,0.922
0.737,0.922
0.738,0.912
0.739,0.892
0.74,0.912
0.741,0.912
0.742,0.908
0.743,0.915
0.744,0.905
0.745,0.908
0.746,0.899
0.747,0.899
0.748,0.915
0.749,0.931
0.75,0.941
0.751,0.915
0.752,0.909
0.753,0.912
0.754,0.886
0.755,0.895
0.756,0.889
0.757,0.872
0.758,0.885
0.759,0.892
0.76,0.908
0.761,0.905
0.762,0.895
0.763,0.912
0.764,0.931
0.765,0.951
0.766,0.938
0.767,0.932
0.768,0.954
0.769,0.941
0.77,0.941
0.771,0.935
0.772,0.951
0.773,0.938
0.774,0.932
0.775,0.935
0.776,0.931
0.777,0.938
0.778,0.945
0.779,0.948
0.78,0.958
0.781,0.951
0.782,0.954
0.783,0.964
0.784,0.961
0.785,0.961
0.786,0.955
0.787,0.971
0.788,0.984
0.789,0.968
0.79,0.961
0.791,0.948
0.792,0.954
0.793,0.951
0.794,0.948
0.795,0.935
0.796,0.931
0.797,0.948
0.798,0.938
0.799,0.932
0.8,0.941
0.801,0.941
0.802,0.954
0.803,0.945
0.804,0.935
0.805,0.938
0.806,0.945
0.807,0.945
0.808,0.928
0.809,0.935
0.81,0.922
0.811,0.899
0.812,0.899
0.813,0.876
0.814,0.895
0.815,0.899
0.816,0.886
0.817,0.889
0.818,0.876
0.819,0.892
0.82,0.879
0.821,0.882
0.822,0.892
0.823,0.889
0.824,0.905
0.825,0.882
0.826,0.872
0.827,0.889
0.828,0.895
0.829,0.895
0.83,0.876
0.831,0.853
0.832,0.862
0.833,0.84
0.834,0.839
0.835,0.83
0.836,0.83
0.837,0.823
0.838,0.836
0.839,0.81
0.84,0.816
0.841,0.826
0.842,0.83
0.843,0.836
0.844,0.843
0.845,0.839
0.846,0.839
0.847,0.849
0.848,0.846
0.849,0.859
0.85,0.849
0.851,0.853
0.852,0.853
0.853,0.843
0.854,0.839
0.855,0.83
0.856,0.852
0.857,0.846
0.858,0.833
0.859,0.852
0.86,0.853
0.861,0.849
0.862,0.833
0.863,0.843
0.864,0.856
0.865,0.866
0.866,0.866
0.867,0.843
0.868,0.849
0.869,0.866
0.87,0.859
0.871,0.856
0.872,0.853
0.873,0.833
0.874,0.852
0.875,0.84
0.876,0.852
0.877,0.833
0.878,0.839
0.879,0.836
0.88,0.836
0.881,0.843
0.882,0.846
0.883,0.859
0.884,0.866
0.885,0.869
0.886,0.869
0.887,0.859
0.888,0.885
0.889,0.879
0.89,0.866
0.891,0.876
0.892,0.872
0.893,0.872
0.894,0.876
0.895,0.859
0.896,0.856
0.897,0.859
0.898,0.862
0.899,0.856
0.9,0.846
0.901,0.866
0.902,0.872
0.903,0.866
0.904,0.872
0.905,0.869
0.906,0.882
0.907,0.892
0.908,0.886
0.909,0.863
0.91,0.882
0.911,0.866
0.912,0.853
0.913,0.859
0.914,0.843
0.915,0.849
0.916,0.862
0.917,0.853
0.918,0.846
0.919,0.853
0.92,0.869
0.921,0.872
0.922,0.882
0.923,0.885
0.924,0.882
0.925,0.905
0.926,0.889
0.927,0.885
0.928,0.889
0.929,0.892
0.93,0.902
0.931,0.876
0.932,0.872
0.933,0.879
0.934,0.863
0.935,0.859
0.936,0.853
0.937,0.83
0.938,0.826
0.939,0.83
0.94,0.843
0.941,0.833
0.942,0.846
0.943,0.856
0.944,0.866
0.945,0.866
0.946,0.849
0.947,0.859
0.948,0.875
0.949,0.859
0.95,0.859
0.951,0.869
0.952,0.869
0.953,0.856
0.954,0.843
0.955,0.843
0.956,0.849
0.957,0.859
0.958,0.853
0.959,0.817
0.96,0.846
0.961,0.862
0.962,0.849
0.963,0.843
0.964,0.846
0.965,0.849
0.966,0.862
0.967,0.879
0.968,0.869
0.969,0.863
0.97,0.866
0.971,0.872
0.972,0.879
0.973,0.859
0.974,0.836
0.975,0.83
0.976,0.833
0.977,0.83
0.978,0.8
0.979,0.82
0.98,0.826
0.981,0.836
0.982,0.839
0.983,0.843
0.984,0.843
0.985,0.849
0.986,0.836
0.987,0.83
0.988,0.83
0.989,0.849
0.99,0.843
0.991,0.826
0.992,0.83
0.993,0.81
0.994,0.816
0.995,0.813
0.996,0.807
0.997,0.787
0.998,0.793
0.999,0.81
1,0.794
1.001,0.803
1.002,0.803
1.003,0.807
1.004,0.833
1.005,0.836
1.006,0.826
1.007,0.843
1.008,0.839
1.009,0.826
1.01,0.82
1.011,0.823
1.012,0.82
1.013,0.807
1.014,0.81
1.015,0.8
1.016,0.803
1.017,0.8
1.018,0.794
1.019,0.793
1.02,0.806
1.021,0.826
1.022,0.817
1.023,0.813
1.024,0.839
1.025,0.836
1.026,0.846
1.027,0.846
1.028,0.827
1.029,0.823
1.03,0.817
1.031,0.82
1.032,0.8
1.033,0.81
1.034,0.797
1.035,0.797
1.036,0.794
1.037,0.79
1.038,0.784
1.039,0.793
1.04,0.803
1.041,0.794
1.042,0.784
1.043,0.81
1.044,0.82
1.045,0.826
1.046,0.823
1.047,0.81
1.048,0.826
1.049,0.826
1.05,0.813
1.051,0.784
1.052,0.8
1.053,0.79
1.054,0.777
1.055,0.771
1.056,0.77
1.057,0.767
1.058,0.8
1.059,0.787
1.06,0.771
1.061,0.793
1.062,0.8
1.063,0.813
1.064,0.813
1.065,0.826
1.066,0.817
1.067,0.823
1.068,0.836
1.069,0.813
1.07,0.8
1.071,0.81
1.072,0.787
1.073,0.787
1.074,0.771
1.075,0.767
1.076,0.764
1.077,0.78
1.078,0.767
1.079,0.748
1.08,0.764
1.081,0.8
1.082,0.79
1.083,0.81
1.084,0.8
1.085,0.807
1.086,0.81
1.087,0.829
1.088,0.82
1.089,0.797
1.09,0.807
1.091,0.807
1.092,0.787
1.093,0.797
1.094,0.784
1.095,0.79
1.096,0.797
1.097,0.781
1.098,0.777
1.099,0.774
1.1,0.79
1.101,0.793
1.102,0.777
1.103,0.79
1.104,0.78
1.105,0.813
1.106,0.8
1.107,0.784
1.108,0.806
1.109,0.816
1.11,0.813
1.111,0.8
1.112,0.8
1.113,0.803
1.114,0.787
1.115,0.78
1.116,0.777
1.117,0.764
1.118,0.78
1.119,0.78
1.12,0.774
1.121,0.79
1.122,0.78
1.123,0.777
1.124,0.79
1.125,0.793
1.126,0.777
1.127,0.803
1.128,0.813
1.129,0.79
1.13,0.78
1.131,0.774
1.132,0.784
1.133,0.78
1.134,0.758
1.135,0.761
1.136,0.754
1.137,0.77
1.138,0.783
1.139,0.761
1.14,0.764
1.141,0.78
1.142,0.787
1.143,0.777
1.144,0.771
1.145,0.793
1.146,0.787
1.147,0.81
1.148,0.797
1.149,0.787
1.15,0.813
1.151,0.8
1.152,0.8
1.153,0.794
1.154,0.787
1.155,0.79
1.156,0.784
1.157,0.777
1.158,0.761
1.159,0.78
1.16,0.774
1.161,0.767
1.162,0.783
1.163,0.774
1.164,0.784
1.165,0.787
1.166,0.787
1.167,0.787
1.168,0.793
1.169,0.81
1.17,0.807
1.171,0.784
1.172,0.79
1.173,0.748
1.174,0.773
1.175,0.774
1.176,0.774
1.177,0.774
1.178,0.774
1.179,0.784
1.18,0.771
1.181,0.774
1.182,0.787
1.183,0.78
1.184,0.806
1.185,0.79
1.186,0.79
1.187,0.793
1.188,0.79
1.189,0.81
1.19,0.787
1.191,0.784
1.192,0.79
1.193,0.78
1.194,0.793
1.195,0.784
1.196,0.771
1.197,0.787
1.198,0.771
1.199,0.761
1.2,0.774
1.201,0.78
1.202,0.777
1.203,0.793
1.204,0.797
1.205,0.781
1.206,0.797
1.207,0.81
1.208,0.8
1.209,0.807
1.21,0.797
1.211,0.787
1.212,0.803
1.213,0.79
1.214,0.777
1.215,0.761
1.216,0.783
1.217,0.754
1.218,0.751
1.219,0.764
1.22,0.751
1.221,0.748
1.222,0.754
1.223,0.764
1.224,0.78
1.225,0.793
1.226,0.793
1.227,0.78
1.228,0.787
1.229,0.813
1.23,0.787
1.231,0.787
1.232,0.774
1.233,0.78
1.234,0.787
1.235,0.767
1.236,0.738
1.237,0.751
1.238,0.761
1.239,0.761
1.24,0.748
1.241,0.77
1.242,0.774
1.243,0.787
1.244,0.8
1.245,0.8
1.246,0.797
1.247,0.8
1.248,0.816
1.249,0.813
1.25,0.797
1.251,0.79
1.252,0.784
1.253,0.797
1.254,0.784
1.255,0.761
1.256,0.77
1.257,0.777
1.258,0.803
1.259,0.787
1.26,0.79
1.261,0.81
1.262,0.82
1.263,0.833
1.264,0.82
1.265,0.833
1.266,0.852
1.267,0.859
1.268,0.859
1.269,0.853
1.27,0.872
1.271,0.876
1.272,0.863
1.273,0.869
1.274,0.856
1.275,0.872
1.276,0.879
1.277,0.866
1.278,0.872
1.279,0.872
1.28,0.905
1.281,0.918
1.282,0.922
1.283,0.931
1.284,0.938
1.285,0.954
1.286,0.948
1.287,0.938
1.288,0.951
1.289,0.967
1.29,0.951
1.291,0.958
1.292,0.951
1.293,0.954
1.294,0.958
1.295,0.961
1.296,0.951
1.297,0.935
1.298,0.948
1.299,0.932
1.3,0.925
1.301,0.928
1.302,0.931
1.303,0.938
1.304,0.945
1.305,0.951
1.306,0.941
1.307,0.967
1.308,0.968
1.309,0.942
1.31,0.941
1.311,0.941
1.312,0.945
1.313,0.925
1.314,0.912
1.315,0.918
1.316,0.918
1.317,0.928
1.318,0.909
1.319,0.905
1.32,0.912
1.321,0.905
1.322,0.902
1.323,0.899
1.324,0.86
1.325,0.862
1.326,0.859
1.327,0.872
1.328,0.85
1.329,0.853
1.33,0.853
1.331,0.827
1.332,0.826
1.333,0.81
1.334,0.816
1.335,0.807
1.336,0.797
1.337,0.787
1.338,0.784
1.339,0.806
1.34,0.79
1.341,0.787
1.342,0.793
1.343,0.803
1.344,0.807
1.345,0.79
1.346,0.777
1.347,0.787
1.348,0.79
1.349,0.797
1.35,0.771
1.351,0.757
1.352,0.748
1.353,0.741
1.354,0.767
1.355,0.761
1.356,0.744
1.357,0.744
1.358,0.734
1.359,0.731
1.36,0.715
1.361,0.763
1.362,0.78
1.363,0.767
1.364,0.757
1.365,0.748
1.366,0.757
1.367,0.761
1.368,0.767
1.369,0.751
1.37,0.754
1.371,0.767
1.372,0.748
1.373,0.738
1.374,0.741
1.375,0.731
1.376,0.754
1.377,0.744
1.378,0.734
1.379,0.754
1.38,0.77
1.381,0.77
1.382,0.77
1.383,0.777
1.384,0.803
1.385,0.81
1.386,0.829
1.387,0.852
1.388,0.853
1.389,0.872
1.39,0.863
1.391,0.902
1.392,0.895
1.393,0.925
1.394,0.951
1.395,0.958
1.396,0.99
1.397,1.02
1.398,1.075
1.399,1.105
1.4,1.128
1.401,1.135
1.402,1.158
1.403,1.187
1.404,1.207
1.405,1.214
1.406,1.217
1.407,1.185
1.408,1.175
1.409,1.171
1.41,1.168
1.411,1.197
1.412,1.175
1.413,1.178
1.414,1.188
1.415,1.181
1.416,1.178
1.417,1.188
1.418,1.178
1.419,1.11
1.42,1.083
1.421,1.053
1.422,0.994
1.423,0.971
1.424,0.945
1.425,0.925
1.426,0.902
1.427,0.85
1.428,0.817
1.429,0.787
1.43,0.758
1.431,0.709
1.432,0.676
1.433,0.639
1.434,0.587
1.435,0.564
1.436,0.531
1.437,0.472
1.438,0.4
1.439,0.347
1.44,0.327
1.441,0.304
1.442,0.288
1.443,0.294
1.444,0.294
1.445,0.333
1.446,0.36
1.447,0.405
1.448,0.429
1.449,0.448
1.45,0.445
1.451,0.435
1.452,0.478
1.453,0.472
1.454,0.485
1.455,0.514
1.456,0.524
1.457,0.531
1.458,0.56
1.459,0.576
1.46,0.606
1.461,0.622
1.462,0.662
1.463,0.685
1.464,0.708
1.465,0.741
1.466,0.747
1.467,0.764
1.468,0.774
1.469,0.774
1.47,0.784
1.471,0.793
1.472,0.8
1.473,0.774
1.474,0.774
1.475,0.777
1.476,0.771
1.477,0.774
1.478,0.784
1.479,0.767
1.48,0.777
1.481,0.774
1.482,0.78
1.483,0.784
1.484,0.806
1.485,0.807
1.486,0.8
1.487,0.816
1.488,0.81
1.489,0.816
1.49,0.807
1.491,0.81
1.492,0.803
1.493,0.8
1.494,0.803
1.495,0.794
1.496,0.79
1.497,0.803
1.498,0.794
1.499,0.813
1.5,0.813
1.501,0.807
1.502,0.803
1.503,0.8
1.504,0.816
1.505,0.816
1.506,0.823
1.507,0.826
1.508,0.82
1.509,0.817
1.51,0.79
1.511,0.806
1.512,0.807
1.513,0.803
1.514,0.8
1.515,0.787
1.516,0.797
1.517,0.79
1.518,0.797
1.519,0.807
1.52,0.816
1.521,0.826
1.522,0.83
1.523,0.813
1.524,0.826
1.525,0.82
1.526,0.836
1.527,0.817
1.528,0.82
1.529,0.826
1.53,0.8
1.531,0.81
1.532,0.803
1.533,0.8
1.534,0.813
1.535,0.8
1.536,0.807
1.537,0.8
1.538,0.807
1.539,0.8
1.54,0.797
1.541,0.816
1.542,0.813
1.543,0.829
1.544,0.83
1.545,0.826
1.546,0.833
1.547,0.833
1.548,0.852
1.549,0.84
1.55,0.817
1.551,0.829
1.552,0.813
1.553,0.807
1.554,0.8
1.555,0.8
1.556,0.816
1.557,0.803
1.558,0.797
1.559,0.784
1.56,0.81
1.561,0.81
1.562,0.81
1.563,0.836
1.564,0.82
1.565,0.843
1.566,0.856
1.567,0.866
1.568,0.853
1.569,0.853
1.57,0.856
1.571,0.853
1.572,0.853
1.573,0.827
1.574,0.83
1.575,0.852
1.576,0.833
1.577,0.81
1.578,0.82
1.579,0.826
1.58,0.846
1.581,0.84
1.582,0.833
1.583,0.836
1.584,0.836
1.585,0.846
1.586,0.836
1.587,0.839
1.588,0.865
1.589,0.862
1.59,0.849
1.591,0.833
1.592,0.83
1.593,0.826
1.594,0.833
1.595,0.833
1.596,0.82
1.597,0.839
1.598,0.836
1.599,0.826
1.6,0.83
1.601,0.856
1.602,0.856
1.603,0.856
1.604,0.859
1.605,0.856
1.606,0.856
1.607,0.892
1.608,0.866
1.609,0.862
1.61,0.869
1.611,0.853
1.612,0.856
1.613,0.846
1.614,0.849
1.615,0.859
1.616,0.853
1.617,0.866
1.618,0.84
1.619,0.856
1.62,0.872
1.621,0.869
1.622,0.872
1.623,0.882
1.624,0.882
1.625,0.866
1.626,0.866
1.627,0.876
1.628,0.879
1.629,0.902
1.63,0.876
1.631,0.846
1.632,0.853
1.633,0.846
1.634,0.849
1.635,0.849
1.636,0.849
1.637,0.84
1.638,0.839
1.639,0.846
1.64,0.849
1.641,0.853
1.642,0.879
1.643,0.879
1.644,0.879
1.645,0.879
1.646,0.895
1.647,0.889
1.648,0.899
1.649,0.886
1.65,0.879
1.651,0.882
1.652,0.892
1.653,0.863
1.654,0.875
1.655,0.866
1.656,0.892
1.657,0.889
1.658,0.869
1.659,0.879
1.66,0.892
1.661,0.905
1.662,0.895
1.663,0.905
1.664,0.918
1.665,0.909
1.666,0.912
1.667,0.915
1.668,0.912
1.669,0.902
1.67,0.908
1.671,0.905
1.672,0.905
1.673,0.915
1.674,0.902
1.675,0.879
1.676,0.879
1.677,0.882
1.678,0.882
1.679,0.872
1.68,0.895
1.681,0.892
1.682,0.895
1.683,0.912
1.684,0.915
1.685,0.912
1.686,0.918
1.687,0.922
1.688,0.931
1.689,0.935
1.69,0.931
1.691,0.918
1.692,0.922
1.693,0.912
1.694,0.899
1.695,0.899
1.696,0.912
1.697,0.905
1.698,0.902
1.699,0.892
1.7,0.902
1.701,0.918
1.702,0.905
1.703,0.908
1.704,0.912
1.705,0.931
1.706,0.922
1.707,0.918
1.708,0.941
1.709,0.951
1.71,0.928
1.711,0.918
1.712,0.909
1.713,0.902
1.714,0.908
1.715,0.882
1.716,0.892
1.717,0.905
1.718,0.905
1.719,0.899
1.72,0.915
1.721,0.912
1.722,0.918
1.723,0.915
1.724,0.925
1.725,0.925
1.726,0.938
1.727,0.948
1.728,0.938
1.729,0.938
1.73,0.951
1.731,0.932
1.732,0.967
1.733,0.935
1.734,0.915
1.735,0.912
1.736,0.889
1.737,0.921
1.738,0.931
1.739,0.931
1.74,0.938
1.741,0.915
1.742,0.931
1.743,0.925
1.744,0.948
1.745,0.961
1.746,0.955
1.747,0.958
1.748,0.948
1.749,0.977
1.75,0.968
1.751,0.955
1.752,0.967
1.753,0.958
1.754,0.958
1.755,0.958
1.756,0.938
1.757,0.941
1.758,0.951
1.759,0.951
1.76,0.941
1.761,0.945
1.762,0.977
1.763,0.974
1.764,0.987
1.765,0.974
1.766,0.981
1.767,0.984
1.768,0.987
1.769,0.984
1.77,0.955
1.771,0.964
1.772,0.951
1.773,0.935
1.774,0.941
1.775,0.935
1.776,0.948
1.777,0.938
1.778,0.925
1.779,0.918
1.78,0.928
1.781,0.948
1.782,0.945
1.783,0.935
1.784,0.931
1.785,0.931
1.786,0.938
1.787,0.925
1.788,0.896
1.789,0.892
1.79,0.899
1.791,0.895
1.792,0.889
1.793,0.892
1.794,0.905
1.795,0.902
1.796,0.899
1.797,0.886
1.798,0.876
1.799,0.879
1.8,0.872
1.801,0.882
1.802,0.885
1.803,0.885
1.804,0.879
1.805,0.879
1.806,0.876
1.807,0.856
1.808,0.859
1.809,0.869
1.81,0.859
1.811,0.856
1.812,0.853
1.813,0.82
1.814,0.82
1.815,0.813
1.816,0.833
1.817,0.83
1.818,0.83
1.819,0.82
1.82,0.817
1.821,0.826
1.822,0.823
1.823,0.83
1.824,0.852
1.825,0.869
1.826,0.846
1.827,0.853
1.828,0.885
1.829,0.872
1.83,0.866
1.831,0.846
1.832,0.836
1.833,0.813
1.834,0.826
1.835,0.817
1.836,0.8
1.837,0.816
1.838,0.82
1.839,0.8
1.84,0.81
1.841,0.807
1.842,0.823
1.843,0.846
1.844,0.843
1.845,0.843
1.846,0.843
1.847,0.869
1.848,0.866
1.849,0.849
1.85,0.856
1.851,0.856
1.852,0.859
1.853,0.84
1.854,0.83
1.855,0.833
1.856,0.836
1.857,0.846
1.858,0.83
1.859,0.82
1.86,0.836
1.861,0.836
1.862,0.856
1.863,0.84
1.864,0.833
1.865,0.843
1.866,0.866
1.867,0.846
1.868,0.853
1.869,0.869
1.87,0.866
1.871,0.853
1.872,0.84
1.873,0.82
1.874,0.843
1.875,0.856
1.876,0.843
1.877,0.839
1.878,0.852
1.879,0.862
1.88,0.856
1.881,0.849
1.882,0.856
1.883,0.859
1.884,0.879
1.885,0.876
1.886,0.872
1.887,0.863
1.888,0.872
1.889,0.889
1.89,0.866
1.891,0.853
1.892,0.856
1.893,0.846
1.894,0.862
1.895,0.836
1.896,0.83
1.897,0.833
1.898,0.843
1.899,0.836
1.9,0.839
1.901,0.865
1.902,0.885
1.903,0.879
1.904,0.879
1.905,0.879
1.906,0.898
1.907,0.889
1.908,0.879
1.909,0.895
1.91,0.889
1.911,0.895
1.912,0.869
1.913,0.856
1.914,0.843
1.915,0.813
1.916,0.836
1.917,0.836
1.918,0.843
1.919,0.846
1.92,0.84
1.921,0.852
1.922,0.84
1.923,0.865
1.924,0.885
1.925,0.869
1.926,0.872
1.927,0.879
1.928,0.885
1.929,0.889
1.93,0.869
1.931,0.84
1.932,0.865
1.933,0.856
1.934,0.82
1.935,0.826
1.936,0.813
1.937,0.8
1.938,0.816
1.939,0.823
1.94,0.813
1.941,0.829
1.942,0.843
1.943,0.839
1.944,0.846
1.945,0.869
1.946,0.872
1.947,0.859
1.948,0.869
1.949,0.853
1.95,0.846
1.951,0.849
1.952,0.836
1.953,0.82
1.954,0.852
1.955,0.827
1.956,0.826
1.957,0.8
1.958,0.81
1.959,0.803
1.96,0.807
1.961,0.807
1.962,0.833
1.963,0.852
1.964,0.846
1.965,0.84
1.966,0.833
1.967,0.849
1.968,0.859
1.969,0.843
1.97,0.846
1.971,0.83
1.972,0.836
1.973,0.839
1.974,0.817
1.975,0.813
1.976,0.807
1.977,0.8
1.978,0.8
1.979,0.79
1.98,0.79
1.981,0.806
1.982,0.826
1.983,0.81
1.984,0.82
1.985,0.82
1.986,0.83
1.987,0.83
1.988,0.826
1.989,0.843
1.99,0.817
1.991,0.813
1.992,0.807
1.993,0.797
1.994,0.794
1.995,0.8
1.996,0.787
1.997,0.787
1.998,0.793
1.999,0.813
2,0.794
2.001,0.784
2.002,0.8
2.003,0.813
2.004,0.807
2.005,0.8
2.006,0.807
2.007,0.836
2.008,0.826
2.009,0.826
2.01,0.8
2.011,0.816
2.012,0.807
2.013,0.784
2.014,0.803
2.015,0.807
2.016,0.826
2.017,0.8
2.018,0.787
2.019,0.8
2.02,0.8
2.021,0.8
2.022,0.794
2.023,0.813
2.024,0.833
2.025,0.817
2.026,0.816
2.027,0.826
2.028,0.81
2.029,0.807
2.03,0.794
2.031,0.774
2.032,0.777
2.033,0.79
2.034,0.784
2.035,0.777
2.036,0.793
2.037,0.793
2.038,0.806
2.039,0.79
2.04,0.803
2.041,0.781
2.042,0.787
2.043,0.813
2.044,0.79
2.045,0.777
2.046,0.803
2.047,0.803
2.048,0.813
2.049,0.81
2.05,0.8
2.051,0.787
2.052,0.797
2.053,0.794
2.054,0.78
2.055,0.787
2.056,0.78
2.057,0.754
2.058,0.787
2.059,0.784
2.06,0.793
2.061,0.793
2.062,0.774
2.063,0.79
2.064,0.793
2.065,0.803
2.066,0.803
2.067,0.807
2.068,0.813
2.069,0.816
2.07,0.8
2.071,0.774
2.072,0.774
2.073,0.787
2.074,0.774
2.075,0.767
2.076,0.77
2.077,0.774
2.078,0.777
2.079,0.777
2.08,0.777
2.081,0.787
2.082,0.784
2.083,0.8
2.084,0.8
2.085,0.794
2.086,0.797
2.087,0.81
2.088,0.774
2.089,0.777
2.09,0.78
2.091,0.764
2.092,0.777
2.093,0.761
2.094,0.774
2.095,0.784
2.096,0.767
2.097,0.77
2.098,0.761
2.099,0.787
2.1,0.813
2.101,0.787
2.102,0.79
2.103,0.784
2.104,0.806
2.105,0.787
2.106,0.79
2.107,0.78
2.108,0.787
2.109,0.784
2.11,0.771
2.111,0.774
2.112,0.774
2.113,0.754
2.114,0.78
2.115,0.761
2.116,0.787
2.117,0.767
2.118,0.761
2.119,0.77
2.12,0.764
2.121,0.783
2.122,0.784
2.123,0.787
2.124,0.79
2.125,0.784
2.126,0.777
2.127,0.78
2.128,0.78
2.129,0.793
2.13,0.784
2.131,0.784
2.132,0.761
2.133,0.767
2.134,0.764
2.135,0.761
2.136,0.774
2.137,0.764
2.138,0.774
2.139,0.767
2.14,0.764
2.141,0.774
2.142,0.761
2.143,0.787
2.144,0.793
2.145,0.787
2.146,0.803
2.147,0.781
2.148,0.784
2.149,0.78
2.15,0.774
2.151,0.8
2.152,0.768
2.153,0.78
2.154,0.748
2.155,0.78
2.156,0.787
2.157,0.78
2.158,0.761
2.159,0.751
2.16,0.783
2.161,0.774
2.162,0.764
2.163,0.783
2.164,0.78
2.165,0.8
2.166,0.794
2.167,0.797
2.168,0.8
2.169,0.794
2.17,0.79
2.171,0.777
2.172,0.78
2.173,0.787
2.174,0.777
2.175,0.774
2.176,0.754
2.177,0.741
2.178,0.76
2.179,0.774
2.18,0.771
2.181,0.748
2.182,0.764
2.183,0.754
2.184,0.764
2.185,0.787
2.186,0.797
2.187,0.813
2.188,0.8
2.189,0.774
2.19,0.78
2.191,0.784
2.192,0.793
2.193,0.78
2.194,0.764
2.195,0.77
2.196,0.78
2.197,0.771
2.198,0.754
2.199,0.735
2.2,0.78
2.201,0.784
2.202,0.777
2.203,0.787
2.204,0.777
2.205,0.797
2.206,0.803
2.207,0.813
2.208,0.79
2.209,0.823
2.21,0.817
2.211,0.797
2.212,0.807
2.213,0.784
2.214,0.767
2.215,0.79
2.216,0.78
2.217,0.784
2.218,0.8
2.219,0.81
2.22,0.807
2.221,0.836
2.222,0.849
2.223,0.846
2.224,0.849
2.225,0.869
2.226,0.879
2.227,0.866
2.228,0.859
2.229,0.882
2.23,0.885
2.231,0.879
2.232,0.859
2.233,0.84
2.234,0.852
2.235,0.846
2.236,0.879
2.237,0.866
2.238,0.882
2.239,0.885
2.24,0.905
2.241,0.941
2.242,0.922
2.243,0.918
2.244,0.948
2.245,0.958
2.246,0.958
2.247,0.958
2.248,0.981
2.249,0.964
2.25,0.964
2.251,0.961
2.252,0.938
2.253,0.932
2.254,0.951
2.255,0.951
2.256,0.938
2.257,0.922
2.258,0.948
2.259,0.932
2.26,0.948
2.261,0.945
2.262,0.938
2.263,0.954
2.264,0.948
2.265,0.938
2.266,0.945
2.267,0.951
2.268,0.977
2.269,0.958
2.27,0.932
2.271,0.905
2.272,0.918
2.273,0.918
2.274,0.909
2.275,0.912
2.276,0.912
2.277,0.899
2.278,0.876
2.279,0.876
2.28,0.869
2.281,0.853
2.282,0.82
2.283,0.846
2.284,0.84
2.285,0.852
2.286,0.836
2.287,0.849
2.288,0.862
2.289,0.856
2.29,0.83
2.291,0.82
2.292,0.79
2.293,0.8
2.294,0.803
2.295,0.81
2.296,0.761
2.297,0.725
2.298,0.754
2.299,0.754
2.3,0.757
2.301,0.761
2.302,0.767
2.303,0.793
2.304,0.787
2.305,0.793
2.306,0.787
2.307,0.797
2.308,0.8
2.309,0.784
2.31,0.754
2.311,0.764
2.312,0.748
2.313,0.764
2.314,0.744
2.315,0.744
2.316,0.747
2.317,0.757
2.318,0.744
2.319,0.731
2.32,0.76
2.321,0.761
2.322,0.777
2.323,0.767
2.324,0.764
2.325,0.764
2.326,0.77
2.327,0.77
2.328,0.761
2.329,0.774
2.33,0.774
2.331,0.751
2.332,0.748
2.333,0.757
2.334,0.754
2.335,0.738
2.336,0.738
2.337,0.741
2.338,0.757
2.339,0.77
2.34,0.777
2.341,0.797
2.342,0.813
2.343,0.849
2.344,0.846
2.345,0.833
2.346,0.852
2.347,0.898
2.348,0.915
2.349,0.954
2.35,0.941
2.351,0.971
2.352,1.01
2.353,1.017
2.354,1.056
2.355,1.092
2.356,1.125
2.357,1.135
2.358,1.155
2.359,1.152
2.36,1.187
2.361,1.207
2.362,1.198
2.363,1.188
2.364,1.162
2.365,1.165
2.366,1.191
2.367,1.214
2.368,1.221
2.369,1.237
2.37,1.234
2.371,1.221
2.372,1.185
2.373,1.21
2.374,1.217
2.375,1.149
2.376,1.135
2.377,1.083
2.378,1.037
2.379,0.991
2.38,0.961
2.381,0.958
2.382,0.899
2.383,0.856
2.384,0.836
2.385,0.797
2.386,0.774
2.387,0.748
2.388,0.734
2.389,0.702
2.39,0.633
2.391,0.603
2.392,0.557
2.393,0.511
2.394,0.446
2.395,0.383
2.396,0.354
2.397,0.308
2.398,0.317
2.399,0.285
2.4,0.33
2.401,0.363
2.402,0.389
2.403,0.425
2.404,0.458
2.405,0.501
2.406,0.495
2.407,0.495
2.408,0.508
2.409,0.524
2.41,0.534
2.411,0.534
2.412,0.514
2.413,0.543
2.414,0.57
2.415,0.583
2.416,0.609
2.417,0.619
2.418,0.649
2.419,0.652
2.42,0.678
2.421,0.708
2.422,0.724
2.423,0.728
2.424,0.76
2.425,0.774
2.426,0.777
2.427,0.8
2.428,0.807
2.429,0.803
2.43,0.813
2.431,0.813
2.432,0.81
2.433,0.781
2.434,0.774
2.435,0.774
2.436,0.767
2.437,0.787
2.438,0.774
2.439,0.774
2.44,0.803
2.441,0.794
2.442,0.797
2.443,0.797
2.444,0.81
2.445,0.813
2.446,0.816
2.447,0.813
2.448,0.813
2.449,0.816
2.45,0.816
2.451,0.816
2.452,0.829
2.453,0.8
2.454,0.81
2.455,0.797
2.456,0.787
2.457,0.774
2.458,0.787
2.459,0.793
2.46,0.806
2.461,0.794
2.462,0.803
2.463,0.826
2.464,0.843
2.465,0.839
2.466,0.82
2.467,0.826
2.468,0.839
2.469,0.843
2.47,0.823
2.471,0.81
2.472,0.8
2.473,0.8
2.474,0.794
2.475,0.787
2.476,0.793
2.477,0.797
2.478,0.777
2.479,0.774
2.48,0.8
2.481,0.82
2.482,0.813
2.483,0.803
2.484,0.82
2.485,0.817
2.486,0.842
2.487,0.833
2.488,0.826
2.489,0.826
2.49,0.836
2.491,0.836
2.492,0.804
2.493,0.8
2.494,0.82
2.495,0.794
2.496,0.813
2.497,0.8
2.498,0.794
2.499,0.806
2.5,0.816
2.501,0.842
2.502,0.826
2.503,0.833
2.504,0.836
2.505,0.83
2.506,0.826
2.507,0.839
2.508,0.856
2.509,0.836
2.51,0.826
2.511,0.817
2.512,0.816
2.513,0.81
2.514,0.803
2.515,0.807
2.516,0.813
2.517,0.81
2.518,0.81
2.519,0.807
2.52,0.813
2.521,0.82
2.522,0.826
2.523,0.846
2.524,0.846
2.525,0.849
2.526,0.843
2.527,0.846
2.528,0.849
2.529,0.849
2.53,0.846
2.531,0.859
2.532,0.853
2.533,0.833
2.534,0.833
2.535,0.839
2.536,0.826
2.537,0.813
2.538,0.813
2.539,0.797
2.54,0.816
2.541,0.82
2.542,0.81
2.543,0.826
2.544,0.843
2.545,0.869
2.546,0.853
2.547,0.866
2.548,0.879
2.549,0.856
2.55,0.849
2.551,0.843
2.552,0.853
2.553,0.853
2.554,0.827
2.555,0.836
2.556,0.826
2.557,0.843
2.558,0.839
2.559,0.836
2.56,0.865
2.561,0.856
2.562,0.866
2.563,0.866
2.564,0.859
2.565,0.862
2.566,0.879
2.567,0.882
2.568,0.853
2.569,0.862
2.57,0.859
2.571,0.866
2.572,0.859
2.573,0.84
2.574,0.856
2.575,0.859
2.576,0.846
2.577,0.83
2.578,0.83
2.579,0.849
2.58,0.853
2.581,0.856
2.582,0.879
2.583,0.879
2.584,0.885
2.585,0.882
2.586,0.885
2.587,0.885
2.588,0.889
2.589,0.899
2.59,0.886
2.591,0.885
2.592,0.879
2.593,0.869
2.594,0.866
2.595,0.859
2.596,0.853
2.597,0.859
2.598,0.866
2.599,0.859
2.6,0.859
2.601,0.885
2.602,0.882
2.603,0.882
2.604,0.892
2.605,0.899
2.606,0.915
2.607,0.918
2.608,0.889
2.609,0.905
2.61,0.889
2.611,0.882
2.612,0.879
2.613,0.866
2.614,0.876
2.615,0.869
2.616,0.885
2.617,0.882
2.618,0.866
2.619,0.872
2.62,0.879
2.621,0.879
2.622,0.885
2.623,0.885
2.624,0.895
2.625,0.895
2.626,0.892
2.627,0.886
2.628,0.911
2.629,0.925
2.63,0.899
2.631,0.889
2.632,0.892
2.633,0.873
2.634,0.889
2.635,0.885
2.636,0.885
2.637,0.869
2.638,0.889
2.639,0.892
2.64,0.902
2.641,0.905
2.642,0.908
2.643,0.912
2.644,0.912
2.645,0.915
2.646,0.925
2.647,0.915
2.648,0.922
2.649,0.922
2.65,0.912
2.651,0.895
2.652,0.899
2.653,0.899
2.654,0.899
2.655,0.912
2.656,0.886
2.657,0.876
2.658,0.892
2.659,0.886
2.66,0.911
2.661,0.912
2.662,0.902
2.663,0.918
2.664,0.922
2.665,0.938
2.666,0.912
2.667,0.938
2.668,0.941
2.669,0.919
2.67,0.905
2.671,0.895
2.672,0.908
2.673,0.918
2.674,0.902
2.675,0.889
2.676,0.908
2.677,0.915
2.678,0.899
2.679,0.889
2.68,0.912
2.681,0.908
2.682,0.902
2.683,0.908
2.684,0.925
2.685,0.935
2.686,0.928
2.687,0.931
2.688,0.925
2.689,0.931
2.69,0.931
2.691,0.915
2.692,0.918
2.693,0.896
2.694,0.938
2.695,0.932
2.696,0.918
2.697,0.909
2.698,0.915
2.699,0.935
2.7,0.918
2.701,0.905
2.702,0.928
2.703,0.935
2.704,0.945
2.705,0.948
2.706,0.948
2.707,0.951
2.708,0.967
2.709,0.964
2.71,0.955
2.711,0.964
2.712,0.971
2.713,0.961
2.714,0.951
2.715,0.951
2.716,0.964
2.717,0.942
2.718,0.941
2.719,0.948
2.72,0.945
2.721,0.951
2.722,0.948
2.723,0.967
2.724,0.951
2.725,0.967
2.726,0.981
2.727,0.971
2.728,0.961
2.729,0.964
2.73,0.971
2.731,0.971
2.732,0.945
2.733,0.945
2.734,0.925
2.735,0.925
2.736,0.935
2.737,0.918
2.738,0.915
2.739,0.915
2.74,0.909
2.741,0.912
2.742,0.918
2.743,0.938
2.744,0.909
2.745,0.921
2.746,0.925
2.747,0.918
2.748,0.922
2.749,0.905
2.75,0.895
2.751,0.892
2.752,0.886
2.753,0.866
2.754,0.853
2.755,0.872
2.756,0.869
2.757,0.846
2.758,0.84
2.759,0.843
2.76,0.856
2.761,0.853
2.762,0.84
2.763,0.849
2.764,0.859
2.765,0.853
2.766,0.853
2.767,0.856
2.768,0.879
2.769,0.879
2.77,0.856
2.771,0.853
2.772,0.84
2.773,0.836
2.774,0.83
2.775,0.82
2.776,0.817
2.777,0.826
2.778,0.823
2.779,0.823
2.78,0.826
2.781,0.823
2.782,0.826
2.783,0.843
2.784,0.849
2.785,0.846
2.786,0.862
2.787,0.872
2.788,0.83
2.789,0.836
2.79,0.83
2.791,0.833
2.792,0.839
2.793,0.81
2.794,0.81
2.795,0.829
2.796,0.833
2.797,0.826
2.798,0.807
2.799,0.813
2.8,0.829
2.801,0.83
2.802,0.846
2.803,0.853
2.804,0.866
2.805,0.859
2.806,0.866
2.807,0.872
2.808,0.856
2.809,0.885
2.81,0.869
2.811,0.853
2.812,0.859
2.813,0.846
2.814,0.84
2.815,0.839
2.816,0.846
2.817,0.817
2.818,0.836
2.819,0.843
2.82,0.849
2.821,0.84
2.822,0.852
2.823,0.84
2.824,0.846
2.825,0.846
2.826,0.853
2.827,0.853
2.828,0.846
2.829,0.853
2.83,0.849
2.831,0.866
2.832,0.849
2.833,0.843
2.834,0.849
2.835,0.833
2.836,0.852
2.837,0.856
2.838,0.843
2.839,0.853
2.84,0.862
2.841,0.866
2.842,0.856
2.843,0.875
2.844,0.882
2.845,0.879
2.846,0.889
2.847,0.863
2.848,0.879
2.849,0.889
2.85,0.872
2.851,0.863
2.852,0.853
2.853,0.866
2.854,0.872
2.855,0.856
2.856,0.856
2.857,0.846
2.858,0.859
2.859,0.853
2.86,0.862
2.861,0.872
2.862,0.879
2.863,0.892
2.864,0.863
2.865,0.862
2.866,0.879
2.867,0.879
2.868,0.879
2.869,0.879
2.87,0.882
2.871,0.885
2.872,0.859
2.873,0.846
2.874,0.846
2.875,0.869
2.876,0.853
2.877,0.84
2.878,0.856
2.879,0.843
2.88,0.853
2.881,0.846
2.882,0.84
2.883,0.865
2.884,0.849
2.885,0.862
2.886,0.856
2.887,0.866
2.888,0.885
2.889,0.869
2.89,0.846
2.891,0.853
2.892,0.866
2.893,0.84
2.894,0.833
2.895,0.823
2.896,0.843
2.897,0.856
2.898,0.84
2.899,0.826
2.9,0.849
2.901,0.853
2.902,0.84
2.903,0.849
2.904,0.84
2.905,0.849
2.906,0.869
2.907,0.869
2.908,0.859
2.909,0.862
2.91,0.846
2.911,0.833
2.912,0.826
2.913,0.807
2.914,0.836
2.915,0.807
2.916,0.82
2.917,0.823
2.918,0.81
2.919,0.82
2.92,0.82
2.921,0.839
2.922,0.849
2.923,0.853
2.924,0.849
2.925,0.836
2.926,0.865
2.927,0.859
2.928,0.859
2.929,0.84
2.93,0.83
2.931,0.826
2.932,0.817
2.933,0.797
2.934,0.813
2.935,0.807
2.936,0.813
2.937,0.79
2.938,0.797
2.939,0.787
2.94,0.793
2.941,0.819
2.942,0.817
2.943,0.807
2.944,0.826
2.945,0.826
2.946,0.833
2.947,0.83
2.948,0.843
2.949,0.833
2.95,0.813
2.951,0.82
2.952,0.807
2.953,0.82
2.954,0.81
2.955,0.794
2.956,0.79
2.957,0.797
2.958,0.816
2.959,0.803
2.96,0.803
2.961,0.803
2.962,0.807
2.963,0.826
2.964,0.817
2.965,0.807
2.966,0.829
2.967,0.83
2.968,0.813
2.969,0.813
2.97,0.826
2.971,0.826
2.972,0.807
2.973,0.787
2.974,0.777
2.975,0.803
2.976,0.807
2.977,0.79
2.978,0.79
2.979,0.793
2.98,0.819
2.981,0.797
2.982,0.787
2.983,0.8
2.984,0.807
2.985,0.829
2.986,0.823
2.987,0.807
2.988,0.82
2.989,0.82
2.99,0.8
2.991,0.807
2.992,0.777
2.993,0.79
2.994,0.787
2.995,0.79
2.996,0.771
2.997,0.783
2.998,0.79
2.999,0.79
3,0.79
3.001,0.787
3.002,0.787
3.003,0.79
3.004,0.79
3.005,0.806
3.006,0.781
3.007,0.784
3.008,0.777
3.009,0.777
3.01,0.79
3.011,0.78
3.012,0.803
3.013,0.781
3.014,0.793
3.015,0.793
3.016,0.787
3.017,0.78
3.018,0.758
3.019,0.764
3.02,0.787
3.021,0.784
3.022,0.784
3.023,0.8
3.024,0.807
3.025,0.803
3.026,0.82
3.027,0.823
3.028,0.83
3.029,0.83
3.03,0.81
3.031,0.79
3.032,0.79
3.033,0.787
3.034,0.79
3.035,0.767
3.036,0.783
3.037,0.78
3.038,0.754
3.039,0.757
3.04,0.777
3.041,0.79
3.042,0.8
3.043,0.784
3.044,0.78
3.045,0.793
3.046,0.823
3.047,0.813
3.048,0.803
3.049,0.826
3.05,0.797
3.051,0.82
3.052,0.81
3.053,0.774
3.054,0.78
3.055,0.79
3.056,0.758
3.057,0.748
3.058,0.754
3.059,0.767
3.06,0.767
3.061,0.783
3.062,0.774
3.063,0.803
3.064,0.803
3.065,0.797
3.066,0.807
3.067,0.807
3.068,0.816
3.069,0.794
3.07,0.767
3.071,0.783
3.072,0.78
3.073,0.8
3.074,0.781
3.075,0.761
3.076,0.754
3.077,0.77
3.078,0.77
3.079,0.767
3.08,0.761
3.081,0.774
3.082,0.774
3.083,0.787
3.084,0.777
3.085,0.797
3.086,0.813
3.087,0.816
3.088,0.79
3.089,0.787
3.09,0.793
3.091,0.777
3.092,0.771
3.093,0.767
3.094,0.757
3.095,0.761
3.096,0.757
3.097,0.744
3.098,0.767
3.099,0.77
3.1,0.8
3.101,0.764
3.102,0.8
3.103,0.8
3.104,0.807
3.105,0.794
3.106,0.78
3.107,0.803
3.108,0.826
3.109,0.82
3.11,0.797
3.111,0.777
3.112,0.793
3.113,0.787
3.114,0.8
3.115,0.807
3.116,0.8
3.117,0.81
3.118,0.803
3.119,0.807
3.12,0.836
3.121,0.849
3.122,0.862
3.123,0.859
3.124,0.862
3.125,0.872
3.126,0.882
3.127,0.889
3.128,0.882
3.129,0.895
3.13,0.892
3.131,0.905
3.132,0.905
3.133,0.886
3.134,0.908
3.135,0.899
3.136,0.902
3.137,0.921
3.138,0.915
3.139,0.925
3.14,0.935
3.141,0.938
3.142,0.964
3.143,0.994
3.144,0.991
3.145,0.974
3.146,1.013
3.147,0.994
3.148,0.961
3.149,0.961
3.15,0.932
3.151,0.935
3.152,0.941
3.153,0.912
3.154,0.908
3.155,0.938
3.156,0.961
3.157,0.948
3.158,0.915
3.159,0.915
3.16,0.922
3.161,0.935
3.162,0.935
3.163,0.931
3.164,0.931
3.165,0.922
3.166,0.941
3.167,0.932
3.168,0.941
3.169,0.941
3.17,0.915
3.171,0.909
3.172,0.886
3.173,0.869
3.174,0.853
3.175,0.836
3.176,0.813
3.177,0.81
3.178,0.816
3.179,0.82
3.18,0.826
3.181,0.843
3.182,0.826
3.183,0.833
3.184,0.833
3.185,0.82
3.186,0.823
3.187,0.826
3.188,0.833
3.189,0.807
3.19,0.797
3.191,0.787
3.192,0.78
3.193,0.787
3.194,0.787
3.195,0.764
3.196,0.764
3.197,0.761
3.198,0.754
3.199,0.744
3.2,0.78
3.201,0.771
3.202,0.748
3.203,0.767
3.204,0.761
3.205,0.787
3.206,0.787
3.207,0.774
3.208,0.784
3.209,0.758
3.21,0.767
3.211,0.744
3.212,0.734
3.213,0.77
3.214,0.741
3.215,0.741
3.216,0.721
3.217,0.741
3.218,0.744
3.219,0.747
3.22,0.757
3.221,0.754
3.222,0.78
3.223,0.777
3.224,0.771
3.225,0.78
3.226,0.793
3.227,0.784
3.228,0.78
3.229,0.774
3.23,0.784
3.231,0.784
3.232,0.793
3.233,0.793
3.234,0.806
3.235,0.813
3.236,0.803
3.237,0.82
3.238,0.836
3.239,0.865
3.24,0.911
3.241,0.918
3.242,0.938
3.243,0.964
3.244,1.023
3.245,1.053
3.246,1.108
3.247,1.141
3.248,1.187
3.249,1.204
3.25,1.217
3.251,1.217
3.252,1.24
3.253,1.25
3.254,1.263
3.255,1.247
3.256,1.231
3.257,1.24
3.258,1.244
3.259,1.237
3.26,1.247
3.261,1.263
3.262,1.26
3.263,1.273
3.264,1.257
3.265,1.24
3.266,1.263
3.267,1.218
3.268,1.152
3.269,1.119
3.27,1.05
3.271,1.011
3.272,0.949
3.273,0.88
3.274,0.83
3.275,0.791
3.276,0.758
3.277,0.705
3.278,0.669
3.279,0.62
3.28,0.623
3.281,0.603
3.282,0.59
3.283,0.574
3.284,0.567
3.285,0.541
3.286,0.534
3.287,0.505
3.288,0.485
3.289,0.455
3.29,0.39
3.291,0.36
3.292,0.331
3.293,0.346
3.294,0.395
3.295,0.422
3.296,0.451
3.297,0.439
3.298,0.474
3.299,0.465
3.3,0.468
3.301,0.497
3.302,0.488
3.303,0.537
3.304,0.537
3.305,0.537
3.306,0.55
3.307,0.576
3.308,0.577
3.309,0.577
3.31,0.593
3.311,0.616
3.312,0.616
3.313,0.636
3.314,0.636
3.315,0.655
3.316,0.688
3.317,0.695
3.318,0.711
3.319,0.715
3.32,0.747
3.321,0.741
3.322,0.764
3.323,0.77
3.324,0.748
3.325,0.787
3.326,0.806
3.327,0.787
3.328,0.784
3.329,0.793
3.33,0.797
3.331,0.784
3.332,0.78
3.333,0.771
3.334,0.79
3.335,0.787
3.336,0.793
3.337,0.777
3.338,0.767
3.339,0.774
3.34,0.777
3.341,0.758
3.342,0.78
3.343,0.79
3.344,0.78
3.345,0.79
3.346,0.777
3.347,0.79
3.348,0.816
3.349,0.794
3.35,0.784
3.351,0.79
3.352,0.787
3.353,0.754
3.354,0.787
3.355,0.793
3.356,0.777
3.357,0.774
3.358,0.777
3.359,0.774
3.36,0.787
3.361,0.803
3.362,0.807
3.363,0.813
3.364,0.82
3.365,0.817
3.366,0.807
3.367,0.81
3.368,0.807
3.369,0.813
3.37,0.816
3.371,0.807
3.372,0.787
3.373,0.761
3.374,0.764
3.375,0.774
3.376,0.774
3.377,0.777
3.378,0.777
3.379,0.777
3.38,0.79
3.381,0.787
3.382,0.787
3.383,0.803
3.384,0.82
3.385,0.807
3.386,0.813
3.387,0.829
3.388,0.81
3.389,0.829
3.39,0.81
3.391,0.803
3.392,0.803
3.393,0.787
3.394,0.784
3.395,0.787
3.396,0.806
3.397,0.787
3.398,0.767
3.399,0.78
3.4,0.79
3.401,0.803
3.402,0.803
3.403,0.813
3.404,0.826
3.405,0.823
3.406,0.807
3.407,0.81
3.408,0.826
3.409,0.83
3.41,0.82
3.411,0.82
3.412,0.807
3.413,0.803
3.414,0.797
3.415,0.79
3.416,0.78
3.417,0.787
3.418,0.81
3.419,0.781
3.42,0.787
3.421,0.803
3.422,0.807
3.423,0.816
3.424,0.82
3.425,0.8
3.426,0.813
3.427,0.829
3.428,0.823
3.429,0.836
3.43,0.83
3.431,0.82
3.432,0.82
3.433,0.81
3.434,0.8
3.435,0.8
3.436,0.807
3.437,0.797
3.438,0.8
3.439,0.807
3.44,0.836
3.441,0.826
3.442,0.839
3.443,0.839
3.444,0.82
3.445,0.849
3.446,0.872
3.447,0.866
3.448,0.853
3.449,0.836
3.45,0.833
3.451,0.826
3.452,0.823
3.453,0.82
3.454,0.807
3.455,0.807
3.456,0.826
3.457,0.836
3.458,0.817
3.459,0.807
3.46,0.826
3.461,0.823
3.462,0.862
3.463,0.866
3.464,0.856
3.465,0.856
3.466,0.849
3.467,0.862
3.468,0.856
3.469,0.846
3.47,0.849
3.471,0.833
3.472,0.804
3.473,0.797
3.474,0.82
3.475,0.839
3.476,0.82
3.477,0.83
3.478,0.826
3.479,0.807
3.48,0.839
3.481,0.843
3.482,0.853
3.483,0.856
3.484,0.879
3.485,0.843
3.486,0.853
3.487,0.866
3.488,0.846
3.489,0.862
3.49,0.849
3.491,0.833
3.492,0.846
3.493,0.836
3.494,0.83
3.495,0.82
3.496,0.826
3.497,0.826
3.498,0.826
3.499,0.826
3.5,0.843
3.501,0.862
3.502,0.875
3.503,0.866
3.504,0.849
3.505,0.862
3.506,0.892
3.507,0.889
3.508,0.885
3.509,0.885
3.51,0.879
3.511,0.879
3.512,0.882
3.513,0.859
3.514,0.843
3.515,0.849
3.516,0.862
3.517,0.836
3.518,0.839
3.519,0.859
3.52,0.84
3.521,0.839
3.522,0.846
3.523,0.846
3.524,0.843
3.525,0.853
3.526,0.869
3.527,0.866
3.528,0.882
3.529,0.882
3.53,0.882
3.531,0.869
3.532,0.859
3.533,0.853
3.534,0.833
3.535,0.833
3.536,0.839
3.537,0.833
3.538,0.849
3.539,0.83
3.54,0.83
3.541,0.843
3.542,0.843
3.543,0.853
3.544,0.849
3.545,0.866
3.546,0.872
3.547,0.892
3.548,0.869
3.549,0.863
3.55,0.862
3.551,0.846
3.552,0.827
3.553,0.843
3.554,0.836
3.555,0.852
3.556,0.833
3.557,0.839
3.558,0.83
3.559,0.839
3.56,0.856
3.561,0.84
3.562,0.849
3.563,0.859
3.564,0.849
3.565,0.856
3.566,0.84
3.567,0.852
3.568,0.866
3.569,0.849
3.57,0.856
3.571,0.833
3.572,0.849
3.573,0.843
3.574,0.83
3.575,0.833
3.576,0.82
3.577,0.83
3.578,0.82
3.579,0.82
3.58,0.833
3.581,0.839
3.582,0.872
3.583,0.869
3.584,0.859
3.585,0.853
3.586,0.859
3.587,0.869
3.588,0.885
3.589,0.863
3.59,0.856
3.591,0.869
3.592,0.872
3.593,0.85
3.594,0.862
3.595,0.846
3.596,0.817
3.597,0.842
3.598,0.843
3.599,0.853
3.6,0.869
3.601,0.863
3.602,0.875
3.603,0.872
3.604,0.892
3.605,0.899
3.606,0.892
3.607,0.908
3.608,0.921
3.609,0.912
3.61,0.905
3.611,0.905
3.612,0.895
3.613,0.876
3.614,0.882
3.615,0.876
3.616,0.889
3.617,0.879
3.618,0.863
3.619,0.885
3.62,0.905
3.621,0.879
3.622,0.882
3.623,0.918
3.624,0.905
3.625,0.912
3.626,0.918
3.627,0.909
3.628,0.886
3.629,0.895
3.63,0.905
3.631,0.905
3.632,0.895
3.633,0.856
3.634,0.859
3.635,0.836
3.636,0.859
3.637,0.833
3.638,0.833
3.639,0.836
3.64,0.83
3.641,0.839
3.642,0.836
3.643,0.83
3.644,0.826
3.645,0.839
3.646,0.843
3.647,0.843
3.648,0.856
3.649,0.849
3.65,0.82
3.651,0.81
3.652,0.807
3.653,0.794
3.654,0.8
3.655,0.8
3.656,0.803
3.657,0.79
3.658,0.803
3.659,0.79
3.66,0.8
3.661,0.797
3.662,0.794
3.663,0.816
3.664,0.813
3.665,0.781
3.666,0.79
3.667,0.806
3.668,0.81
3.669,0.79
3.67,0.819
3.671,0.8
3.672,0.794
3.673,0.81
3.674,0.794
3.675,0.806
3.676,0.816
3.677,0.807
3.678,0.8
3.679,0.79
3.68,0.819
3.681,0.813
3.682,0.807
3.683,0.836
3.684,0.817
3.685,0.807
3.686,0.833
3.687,0.83
3.688,0.817
3.689,0.836
3.69,0.833
3.691,0.823
3.692,0.83
3.693,0.8
3.694,0.81
3.695,0.82
3.696,0.797
3.697,0.794
3.698,0.793
3.699,0.797
3.7,0.813
3.701,0.794
3.702,0.806
3.703,0.82
3.704,0.833
3.705,0.839
3.706,0.82
3.707,0.833
3.708,0.846
3.709,0.836
3.71,0.804
3.711,0.813
3.712,0.813
3.713,0.803
3.714,0.826
3.715,0.839
3.716,0.8
3.717,0.82
3.718,0.797
3.719,0.833
3.72,0.83
3.721,0.826
3.722,0.817
3.723,0.839
3.724,0.839
3.725,0.839
3.726,0.833
3.727,0.859
3.728,0.866
3.729,0.84
3.73,0.807
3.731,0.842
3.732,0.813
3.733,0.803
3.734,0.829
3.735,0.813
3.736,0.82
3.737,0.813
3.738,0.823
3.739,0.823
3.74,0.83
3.741,0.852
3.742,0.833
3.743,0.852
3.744,0.83
3.745,0.849
3.746,0.872
3.747,0.856
3.748,0.853
3.749,0.856
3.75,0.846
3.751,0.846
3.752,0.83
3.753,0.794
3.754,0.826
3.755,0.839
3.756,0.826
3.757,0.787
3.758,0.797
3.759,0.803
3.76,0.82
3.761,0.817
3.762,0.823
3.763,0.813
3.764,0.826
3.765,0.843
3.766,0.836
3.767,0.856
3.768,0.875
3.769,0.863
3.77,0.82
3.771,0.856
3.772,0.83
3.773,0.856
3.774,0.833
3.775,0.826
3.776,0.8
3.777,0.8
3.778,0.82
3.779,0.777
3.78,0.81
3.781,0.823
3.782,0.823
3.783,0.826
3.784,0.81
3.785,0.816
3.786,0.836
3.787,0.852
3.788,0.833
3.789,0.81
3.79,0.833
3.791,0.83
3.792,0.804
3.793,0.813
3.794,0.807
3.795,0.826
3.796,0.813
3.797,0.816
3.798,0.797
3.799,0.8
3.8,0.823
3.801,0.804
3.802,0.826
3.803,0.856
3.804,0.836
3.805,0.862
3.806,0.836
3.807,0.807
3.808,0.797
3.809,0.803
3.81,0.787
3.811,0.78
3.812,0.806
3.813,0.781
3.814,0.787
3.815,0.79
3.816,0.79
3.817,0.79
3.818,0.777
3.819,0.793
3.82,0.819
3.821,0.813
3.822,0.823
3.823,0.784
3.824,0.81
3.825,0.816
3.826,0.777
3.827,0.787
3.828,0.774
3.829,0.787
3.83,0.784
3.831,0.758
3.832,0.754
3.833,0.78
3.834,0.823
3.835,0.817
3.836,0.784
3.837,0.784
3.838,0.761
3.839,0.777
3.84,0.787
3.841,0.758
3.842,0.787
3.843,0.813
3.844,0.79
3.845,0.777
3.846,0.79
3.847,0.806
3.848,0.813
3.849,0.813
3.85,0.823
3.851,0.81
3.852,0.79
3.853,0.777
3.854,0.738
3.855,0.747
3.856,0.777
3.857,0.787
3.858,0.741
3.859,0.764
3.86,0.767
3.861,0.767
3.862,0.751
3.863,0.757
3.864,0.725
3.865,0.77
3.866,0.806
3.867,0.768
3.868,0.787
3.869,0.8
3.87,0.768
3.871,0.793
3.872,0.78
3.873,0.784
3.874,0.78
3.875,0.764
3.876,0.761
3.877,0.738
3.878,0.764
3.879,0.741
3.88,0.738
3.881,0.744
3.882,0.757
3.883,0.787
3.884,0.797
3.885,0.767
3.886,0.793
3.887,0.787
3.888,0.767
3.889,0.738
3.89,0.741
3.891,0.754
3.892,0.77
3.893,0.796
3.894,0.777
3.895,0.754
3.896,0.777
3.897,0.78
3.898,0.784
3.899,0.751
3.9,0.793
3.901,0.826
3.902,0.81
3.903,0.82
3.904,0.82
3.905,0.839
3.906,0.82
3.907,0.83
3.908,0.846
3.909,0.817
3.91,0.842
3.911,0.853
3.912,0.862
3.913,0.836
3.914,0.846
3.915,0.84
3.916,0.846
3.917,0.875
3.918,0.853
3.919,0.866
3.92,0.908
3.921,0.899
3.922,0.915
3.923,0.922
3.924,0.925
3.925,0.931
3.926,0.944
3.927,0.948
3.928,0.954
3.929,0.945
3.93,0.938
3.931,0.919
3.932,0.948
3.933,0.948
3.934,0.941
3.935,0.951
3.936,0.941
3.937,0.919
3.938,0.928
3.939,0.944
3.94,0.935
3.941,0.922
3.942,0.941
3.943,0.932
3.944,0.935
3.945,0.935
3.946,0.938
3.947,0.971
3.948,0.968
3.949,0.955
3.95,0.912
3.951,0.908
3.952,0.915
3.953,0.896
3.954,0.912
3.955,0.895
3.956,0.869
3.957,0.892
3.958,0.899
3.959,0.915
3.96,0.909
3.961,0.895
3.962,0.886
3.963,0.879
3.964,0.885
3.965,0.853
3.966,0.853
3.967,0.84
3.968,0.83
3.969,0.82
3.97,0.797
3.971,0.771
3.972,0.767
3.973,0.783
3.974,0.754
3.975,0.757
3.976,0.754
3.977,0.754
3.978,0.754
3.979,0.751
3.98,0.78
3.981,0.774
3.982,0.777
3.983,0.774
3.984,0.764
3.985,0.774
3.986,0.816
3.987,0.787
3.988,0.758
3.989,0.748
3.99,0.741
3.991,0.715
3.992,0.702
3.993,0.708
3.994,0.715
3.995,0.734
3.996,0.699
3.997,0.718
3.998,0.718
3.999,0.734
4,0.741
4.001,0.764
4.002,0.728
4.003,0.744
4.004,0.715
4.005,0.708
4.006,0.721
4.007,0.728
4.008,0.741
4.009,0.747
4.01,0.712
4.011,0.724
4.012,0.695
4.013,0.727
4.014,0.702
4.015,0.669
4.016,0.669
4.017,0.665
4.018,0.688
4.019,0.685
4.02,0.727
4.021,0.741
4.022,0.718
4.023,0.754
4.024,0.741
4.025,0.777
4.026,0.784
4.027,0.806
4.028,0.829
4.029,0.813
4.03,0.842
4.031,0.833
4.032,0.869
4.033,0.892
4.034,0.895
4.035,0.934
4.036,0.967
4.037,0.99
4.038,1.03
4.039,1.076
4.04,1.128
4.041,1.174
4.042,1.175
4.043,1.214
4.044,1.23
4.045,1.227
4.046,1.23
4.047,1.26
4.048,1.28
4.049,1.254
4.05,1.231
4.051,1.253
4.052,1.276
4.053,1.247
4.054,1.224
4.055,1.243
4.056,1.224
4.057,1.182
4.058,1.152
4.059,1.116
4.06,1.122
4.061,1.099
4.062,1.086
4.063,0.966
4.064,0.899
4.065,0.879
4.066,0.814
4.067,0.755
4.068,0.705
4.069,0.659
4.07,0.659
4.071,0.626
4.072,0.493
4.073,0.501
4.074,0.491
4.075,0.491
4.076,0.485
4.077,0.485
4.078,0.472
4.079,0.462
4.08,0.455
4.081,0.445
4.082,0.406
4.083,0.406
4.084,0.386
4.085,0.36
4.086,0.376
4.087,0.418
4.088,0.445
4.089,0.442
4.09,0.445
4.091,0.452
4.092,0.449
4.093,0.475
4.094,0.468
4.095,0.478
4.096,0.511
4.097,0.482
4.098,0.472
4.099,0.488
4.1,0.501
4.101,0.524
4.102,0.531
4.103,0.524
4.104,0.56
4.105,0.57
4.106,0.609
4.107,0.632
4.108,0.662
4.109,0.675
4.11,0.639
4.111,0.633
4.112,0.642
4.113,0.675
4.114,0.669
4.115,0.669
4.116,0.695
4.117,0.688
4.118,0.698
4.119,0.666
4.12,0.669
4.121,0.691
4.122,0.698
4.123,0.753
4.124,0.751
4.125,0.751
4.126,0.783
4.127,0.8
4.128,0.758
4.129,0.764
4.13,0.738
4.131,0.728
4.132,0.738
4.133,0.725
4.134,0.747
4.135,0.712
4.136,0.721
4.137,0.744
4.138,0.725
4.139,0.702
4.14,0.744
4.141,0.767
4.142,0.764
4.143,0.777
4.144,0.738
4.145,0.773
4.146,0.806
4.147,0.784
4.148,0.754
4.149,0.738
4.15,0.777
4.151,0.761
4.152,0.731
4.153,0.757
4.154,0.748
4.155,0.757
4.156,0.757
4.157,0.738
4.158,0.728
4.159,0.76
4.16,0.77
4.161,0.754
4.162,0.767
4.163,0.757
4.164,0.774
4.165,0.777
4.166,0.745
4.167,0.78
4.168,0.787
4.169,0.793
4.17,0.784
4.171,0.777
4.172,0.748
4.173,0.764
4.174,0.774
4.175,0.793
4.176,0.745
4.177,0.731
4.178,0.754
4.179,0.764
4.18,0.774
4.181,0.793
4.182,0.803
4.183,0.774
4.184,0.758
4.185,0.783
4.186,0.735
4.187,0.77
4.188,0.787
4.189,0.774
4.19,0.787
4.191,0.741
4.192,0.751
4.193,0.751
4.194,0.748
4.195,0.734
4.196,0.777
4.197,0.774
4.198,0.771
4.199,0.748
4.2,0.767
4.201,0.803
4.202,0.79
4.203,0.774
4.204,0.767
4.205,0.774
4.206,0.758
4.207,0.806
4.208,0.758
4.209,0.793
4.21,0.774
4.211,0.744
4.212,0.738
4.213,0.731
4.214,0.764
4.215,0.78
4.216,0.803
4.217,0.777
4.218,0.764
4.219,0.767
4.22,0.744
4.221,0.754
4.222,0.829
4.223,0.836
4.224,0.852
4.225,0.797
4.226,0.777
4.227,0.8
4.228,0.855
4.229,0.866
4.23,0.791
4.231,0.78
4.232,0.797
4.233,0.774
4.234,0.793
4.235,0.751
4.236,0.777
4.237,0.771
4.238,0.796
4.239,0.8
4.24,0.797
4.241,0.803
4.242,0.807
4.243,0.781
4.244,0.774
4.245,0.774
4.246,0.777
4.247,0.816
4.248,0.826
4.249,0.794
4.25,0.774
4.251,0.774
4.252,0.8
4.253,0.794
4.254,0.806
4.255,0.803
4.256,0.816
4.257,0.81
4.258,0.797
4.259,0.784
4.26,0.771
4.261,0.8
4.262,0.787
4.263,0.839
4.264,0.804
4.265,0.8
4.266,0.829
4.267,0.878
4.268,0.876
4.269,0.837
4.27,0.813
4.271,0.813
4.272,0.8
4.273,0.826
4.274,0.836
4.275,0.83
4.276,0.817
4.277,0.852
4.278,0.853
4.279,0.807
4.28,0.768
4.281,0.764
4.282,0.813
4.283,0.839
4.284,0.836
4.285,0.813
4.286,0.816
4.287,0.803
4.288,0.855
4.289,0.856
4.29,0.833
4.291,0.849
4.292,0.82
4.293,0.836
4.294,0.813
4.295,0.807
4.296,0.807
4.297,0.852
4.298,0.807
4.299,0.787
4.3,0.797
4.301,0.797
4.302,0.797
4.303,0.862
4.304,0.856
4.305,0.888
4.306,0.853
4.307,0.872
4.308,0.856
4.309,0.836
4.31,0.83
4.311,0.865
4.312,0.82
4.313,0.826
4.314,0.849
4.315,0.836
4.316,0.83
4.317,0.81
4.318,0.807
4.319,0.829
4.32,0.865
4.321,0.83
4.322,0.813
4.323,0.81
4.324,0.8
4.325,0.794
4.326,0.859
4.327,0.856
4.328,0.882
4.329,0.872
4.33,0.866
4.331,0.827
4.332,0.849
4.333,0.866
4.334,0.833
4.335,0.817
4.336,0.826
4.337,0.817
4.338,0.764
4.339,0.848
4.34,0.853
4.341,0.846
4.342,0.895
4.343,0.86
4.344,0.83
4.345,0.856
4.346,0.833
4.347,0.836
4.348,0.833
4.349,0.846
4.35,0.801
4.351,0.833
4.352,0.81
4.353,0.768
4.354,0.767
4.355,0.78
4.356,0.806
4.357,0.81
4.358,0.826
4.359,0.804
4.36,0.8
4.361,0.875
4.362,0.843
4.363,0.856
4.364,0.866
4.365,0.797
4.366,0.79
4.367,0.823
4.368,0.797
4.369,0.829
4.37,0.833
4.371,0.843
4.372,0.791
4.373,0.797
4.374,0.836
4.375,0.813
4.376,0.849
4.377,0.827
4.378,0.833
4.379,0.865
4.38,0.869
4.381,0.885
4.382,0.843
4.383,0.826
4.384,0.878
4.385,0.879
4.386,0.869
4.387,0.863
4.388,0.862
4.389,0.879
4.39,0.911
4.391,0.922
4.392,0.873
4.393,0.895
4.394,0.918
4.395,0.905
4.396,0.856
4.397,0.801
4.398,0.872
4.399,0.833
4.4,0.872
4.401,0.872
4.402,0.924
4.403,0.974
4.404,0.935
4.405,0.883
4.406,0.947
4.407,0.951
4.408,0.912
4.409,0.902
4.41,0.882
4.411,0.856
4.412,0.892
4.413,0.905
4.414,0.928
4.415,0.918
4.416,0.87
4.417,0.889
4.418,0.866
4.419,0.849
4.42,0.879
4.421,0.879
4.422,0.833
4.423,0.836
4.424,0.843
4.425,0.872
4.426,0.859
4.427,0.843
4.428,0.843
4.429,0.833
4.43,0.797
4.431,0.82
4.432,0.79
4.433,0.842
4.434,0.846
4.435,0.869
4.436,0.817
4.437,0.829
4.438,0.813
4.439,0.813
4.44,0.865
4.441,0.817
4.442,0.816
4.443,0.852
4.444,0.849
4.445,0.859
4.446,0.82
4.447,0.813
4.448,0.826
4.449,0.833
4.45,0.826
4.451,0.83
4.452,0.771
4.453,0.8
4.454,0.8
4.455,0.826
4.456,0.778
4.457,0.797
4.458,0.81
4.459,0.712
4.46,0.793
4.461,0.78
4.462,0.764
4.463,0.757
4.464,0.774
4.465,0.797
4.466,0.833
4.467,0.846
4.468,0.797
4.469,0.79
4.47,0.8
4.471,0.829
4.472,0.826
4.473,0.781
4.474,0.797
4.475,0.767
4.476,0.803
4.477,0.742
4.478,0.712
4.479,0.708
4.48,0.724
4.481,0.764
4.482,0.787
4.483,0.764
4.484,0.842
4.485,0.81
4.486,0.807
4.487,0.784
4.488,0.787
4.489,0.858
4.49,0.827
4.491,0.872
4.492,0.833
4.493,0.852
4.494,0.827
4.495,0.862
4.496,0.862
4.497,0.804
4.498,0.829
4.499,0.878
4.5,0.801
4.501,0.768
4.502,0.813
4.503,0.82
4.504,0.817
4.505,0.813
4.506,0.849
4.507,0.781
4.508,0.784
4.509,0.849
4.51,0.801
4.511,0.803
4.512,0.774
4.513,0.771
4.514,0.78
4.515,0.728
4.516,0.809
4.517,0.836
4.518,0.839
4.519,0.879
4.52,0.83
4.521,0.839
4.522,0.862
4.523,0.823
4.524,0.8
4.525,0.823
4.526,0.81
4.527,0.794
4.528,0.81
4.529,0.794
4.53,0.803
4.531,0.79
4.532,0.787
4.533,0.797
4.534,0.852
4.535,0.879
4.536,0.824
4.537,0.748
4.538,0.747
4.539,0.77
4.54,0.722
4.541,0.793
4.542,0.839
4.543,0.859
4.544,0.807
4.545,0.794
4.546,0.826
4.547,0.859
4.548,0.836
4.549,0.856
4.55,0.866
4.551,0.856
4.552,0.81
4.553,0.807
4.554,0.839
4.555,0.797
4.556,0.774
4.557,0.787
4.558,0.767
4.559,0.813
4.56,0.761
4.561,0.835
4.562,0.826
4.563,0.83
4.564,0.813
4.565,0.813
4.566,0.878
4.567,0.872
4.568,0.863
4.569,0.804
4.57,0.82
4.571,0.764
4.572,0.712
4.573,0.763
4.574,0.806
4.575,0.836
4.576,0.826
4.577,0.771
4.578,0.813
4.579,0.751
4.58,0.78
4.581,0.793
4.582,0.8
4.583,0.813
4.584,0.787
4.585,0.774
4.586,0.761
4.587,0.764
4.588,0.822
4.589,0.764
4.59,0.783
4.591,0.787
4.592,0.78
4.593,0.78
4.594,0.78
4.595,0.826
4.596,0.781
4.597,0.81
4.598,0.855
4.599,0.791
4.6,0.797
4.601,0.833
4.602,0.807
4.603,0.878
4.604,0.801
4.605,0.816
4.606,0.79
4.607,0.8
4.608,0.829
4.609,0.787
4.61,0.732
4.611,0.702
4.612,0.721
4.613,0.76
4.614,0.725
4.615,0.76
4.616,0.751
4.617,0.77
4.618,0.748
4.619,0.699
4.62,0.773
4.621,0.731
4.622,0.728
4.623,0.725
4.624,0.747
4.625,0.845
4.626,0.869
4.627,0.872
4.628,0.82
4.629,0.813
4.63,0.829
4.631,0.807
4.632,0.771
4.633,0.683
4.634,0.698
4.635,0.734
4.636,0.708
4.637,0.75
4.638,0.803
4.639,0.8
4.64,0.82
4.641,0.807
4.642,0.816
4.643,0.836
4.644,0.833
4.645,0.791
4.646,0.78
4.647,0.871
4.648,0.937
4.649,0.938
4.65,0.86
4.651,0.882
4.652,0.872
4.653,0.892
4.654,0.856
4.655,0.846
4.656,0.918
4.657,0.866
4.658,0.892
4.659,0.866
4.66,0.853
4.661,0.885
4.662,0.898
4.663,0.957
4.664,0.99
4.665,0.9
4.666,1.029
4.667,0.991
4.668,0.955
4.669,0.984
4.67,0.909
4.671,0.977
4.672,0.971
4.673,0.938
4.674,0.902
4.675,0.947
4.676,0.987
4.677,0.942
4.678,0.951
4.679,0.961
4.68,0.964
4.681,0.945
4.682,0.99
4.683,0.939
4.684,0.912
4.685,0.951
4.686,0.99
4.687,0.935
4.688,0.931
4.689,0.86
4.69,0.901
4.691,0.847
4.692,0.879
4.693,0.918
4.694,0.964
4.695,0.929
4.696,0.925
4.697,0.987
4.698,0.952
4.699,0.88
4.7,0.869
4.701,0.846
4.702,0.807
4.703,0.774
4.704,0.784
4.705,0.803
4.706,0.8
4.707,0.833
4.708,0.82
4.709,0.735
4.71,0.738
4.711,0.799
4.712,0.784
4.713,0.764
4.714,0.731
4.715,0.689
4.716,0.682
4.717,0.757
4.718,0.725
4.719,0.728
4.72,0.783
4.721,0.751
4.722,0.764
4.723,0.748
4.724,0.708
4.725,0.825
4.726,0.778
4.727,0.862
4.728,0.817
4.729,0.758
4.73,0.735
4.731,0.656
4.732,0.675
4.733,0.662
4.734,0.672
4.735,0.695
4.736,0.666
4.737,0.74
4.738,0.673
4.739,0.698
4.74,0.747
4.741,0.692
4.742,0.614
4.743,0.668
4.744,0.669
4.745,0.695
4.746,0.721
4.747,0.715
4.748,0.715
4.749,0.705
4.75,0.741
4.751,0.712
4.752,0.757
4.753,0.725
4.754,0.799
4.755,0.728
4.756,0.734
4.757,0.783
4.758,0.715
4.759,0.692
4.76,0.705
4.761,0.708
4.762,0.767
4.763,0.741
4.764,0.777
4.765,0.839
4.766,0.872
4.767,0.863
4.768,0.924
4.769,0.853
4.77,0.846
4.771,0.866
4.772,1.009
4.773,1.023
4.774,1.157
4.775,1.217
4.776,1.312
4.777,1.319
4.778,1.322
4.779,1.267
4.78,1.455
4.781,1.561
4.782,1.442
4.783,1.454
4.784,1.451
4.785,1.408
4.786,1.353
4.787,1.365
4.788,1.333
4.789,1.345
4.79,1.336
4.791,1.339
4.792,1.287
4.793,1.234
4.794,1.172
4.795,1.21
4.796,1.214
4.797,1.045
4.798,1.102
4.799,0.959
4.8,0.889
4.801,0.807
4.802,0.686
4.803,0.688
4.804,0.597
4.805,0.603
4.806,0.645
4.807,0.555
4.808,0.489
4.809,0.449
4.81,0.432
4.811,0.383
4.812,0.373
4.813,0.353
4.814,0.431
4.815,0.377
4.816,0.399
4.817,0.422
4.818,0.38
4.819,0.36
4.82,0.357
4.821,0.37
4.822,0.334
4.823,0.399
4.824,0.389
4.825,0.425
4.826,0.426
4.827,0.432
4.828,0.452
4.829,0.484
4.83,0.394
4.831,0.432
4.832,0.383
4.833,0.367
4.834,0.428
4.835,0.396
4.836,0.428
4.837,0.497
4.838,0.54
4.839,0.511
4.84,0.54
4.841,0.518
4.842,0.527
4.843,0.544
4.844,0.544
4.845,0.628
4.846,0.649
4.847,0.733
4.848,0.721
4.849,0.689
4.85,0.656
4.851,0.681
4.852,0.666
4.853,0.695
4.854,0.698
4.855,0.669
4.856,0.695
4.857,0.562
4.858,0.687
4.859,0.672
4.86,0.672
4.861,0.753
4.862,0.731
4.863,0.705
4.864,0.728
4.865,0.751
4.866,0.764
4.867,0.699
4.868,0.76
4.869,0.748
4.87,0.738
4.871,0.744
4.872,0.741
4.873,0.718
4.874,0.757
4.875,0.735
4.876,0.601
4.877,0.681
4.878,0.701
4.879,0.721
4.88,0.734
4.881,0.731
4.882,0.734
4.883,0.738
4.884,0.715
4.885,0.734
4.886,0.734
4.887,0.809
4.888,0.777
4.889,0.705
4.89,0.757
4.891,0.699
4.892,0.75
4.893,0.715
4.894,0.783
4.895,0.745
4.896,0.695
4.897,0.675
4.898,0.656
4.899,0.695
4.9,0.692
4.901,0.672
4.902,0.815
4.903,0.803
4.904,0.748
4.905,0.679
4.906,0.737
4.907,0.757
4.908,0.754
4.909,0.767
4.91,0.8
4.911,0.794
4.912,0.764
4.913,0.735
4.914,0.702
4.915,0.708
4.916,0.734
4.917,0.79
4.918,0.777
4.919,0.735
4.92,0.79
4.921,0.722
4.922,0.731
4.923,0.751
4.924,0.774
4.925,0.767
4.926,0.754
4.927,0.738
4.928,0.767
4.929,0.8
4.93,0.768
4.931,0.796
4.932,0.754
4.933,0.728
4.934,0.751
4.935,0.738
4.936,0.715
4.937,0.708
4.938,0.708
4.939,0.747
4.94,0.725
4.941,0.799
4.942,0.803
4.943,0.803
4.944,0.768
4.945,0.731
4.946,0.764
4.947,0.748
4.948,0.816
4.949,0.839
4.95,0.846
4.951,0.801
4.952,0.761
4.953,0.722
4.954,0.747
4.955,0.702
4.956,0.708
4.957,0.724
4.958,0.773
4.959,0.797
4.96,0.829
4.961,0.836
4.962,0.752
4.963,0.845
4.964,0.843
4.965,0.826
4.966,0.797
4.967,0.767
4.968,0.839
4.969,0.797
4.97,0.803
4.971,0.781
4.972,0.777
4.973,0.787
4.974,0.787
4.975,0.774
4.976,0.787
4.977,0.797
4.978,0.81
4.979,0.781
4.98,0.758
4.981,0.787
4.982,0.803
4.983,0.771
4.984,0.77
4.985,0.793
4.986,0.826
4.987,0.807
4.988,0.842
4.989,0.765
4.99,0.751
4.991,0.777
4.992,0.806
4.993,0.803
4.994,0.872
4.995,0.827
4.996,0.807
4.997,0.784
4.998,0.819
4.999,0.794
5,0.803
5.001,0.816
5.002,0.891
5.003,0.964
5.004,0.841
5.005,0.852
5.006,0.752
5.007,0.793
5.008,0.806
5.009,0.781
5.01,0.826
5.011,0.817
5.012,0.784
5.013,0.826
5.014,0.846
5.015,0.853
5.016,0.814
5.017,0.859
5.018,0.817
5.019,0.813
5.02,0.826
5.021,0.813
5.022,0.781
5.023,0.758
5.024,0.777
5.025,0.767
5.026,0.79
5.027,0.829
5.028,0.82
5.029,0.833
5.03,0.878
5.031,0.859
5.032,0.827
5.033,0.852
5.034,0.849
5.035,0.804
5.036,0.836
5.037,0.823
5.038,0.791
5.039,0.881
5.04,0.817
5.041,0.751
5.042,0.826
5.043,0.778
5.044,0.858
5.045,0.875
5.046,0.863
5.047,0.846
5.048,0.814
5.049,0.846
5.05,0.849
5.051,0.856
5.052,0.784
5.053,0.816
5.054,0.797
5.055,0.781
5.056,0.774
5.057,0.852
5.058,0.794
5.059,0.787
5.06,0.832
5.061,0.797
5.062,0.829
5.063,0.761
5.064,0.822
5.065,0.917
5.066,0.879
5.067,0.908
5.068,0.84
5.069,0.813
5.07,0.829
5.071,0.813
5.072,0.826
5.073,0.8
5.074,0.807
5.075,0.777
5.076,0.79
5.077,0.764
5.078,0.722
5.079,0.767
5.08,0.8
5.081,0.833
5.082,0.843
5.083,0.823
5.084,0.83
5.085,0.813
5.086,0.826
5.087,0.817
5.088,0.836
5.089,0.787
5.09,0.862
5.091,0.82
5.092,0.862
5.093,0.81
5.094,0.813
5.095,0.803
5.096,0.745
5.097,0.793
5.098,0.754
5.099,0.777
5.1,0.826
5.101,0.752
5.102,0.79
5.103,0.862
5.104,0.83
5.105,0.856
5.106,0.833
5.107,0.81
5.108,0.862
5.109,0.856
5.11,0.882
5.111,0.879
5.112,0.863
5.113,0.849
5.114,0.859
5.115,0.817
5.116,0.807
5.117,0.764
5.118,0.845
5.119,0.901
5.12,0.951
5.121,0.902
5.122,0.905
5.123,0.879
5.124,0.908
5.125,0.97
5.126,0.938
5.127,0.883
5.128,0.892
5.129,0.873
5.13,0.902
5.131,0.908
5.132,0.895
5.133,0.918
5.134,0.87
5.135,0.859
5.136,0.862
5.137,0.902
5.138,0.915
5.139,0.892
5.14,0.905
5.141,0.915
5.142,0.889
5.143,0.931
5.144,0.922
5.145,0.922
5.146,0.935
5.147,0.909
5.148,0.905
5.149,0.947
5.15,0.844
5.151,0.872
5.152,0.895
5.153,0.873
5.154,0.837
5.155,0.846
5.156,0.866
5.157,0.853
5.158,0.836
5.159,0.813
5.16,0.885
5.161,0.869
5.162,0.859
5.163,0.892
5.164,0.899
5.165,0.879
5.166,0.853
5.167,0.84
5.168,0.83
5.169,0.875
5.17,0.872
5.171,0.83
5.172,0.826
5.173,0.791
5.174,0.832
5.175,0.82
5.176,0.813
5.177,0.797
5.178,0.794
5.179,0.836
5.18,0.817
5.181,0.774
5.182,0.793
5.183,0.8
5.184,0.846
5.185,0.814
5.186,0.82
5.187,0.807
5.188,0.803
5.189,0.807
5.19,0.807
5.191,0.797
5.192,0.784
5.193,0.764
5.194,0.787
5.195,0.78
5.196,0.79
5.197,0.797
5.198,0.787
5.199,0.823
5.2,0.833
5.201,0.784
5.202,0.81
5.203,0.79
5.204,0.839
5.205,0.82
5.206,0.83
5.207,0.826
5.208,0.826
5.209,0.826
5.21,0.826
5.211,0.794
5.212,0.777
5.213,0.784
5.214,0.819
5.215,0.781
5.216,0.771
5.217,0.79
5.218,0.836
5.219,0.83
5.22,0.797
5.221,0.781
5.222,0.816
5.223,0.813
5.224,0.797
5.225,0.781
5.226,0.839
5.227,0.82
5.228,0.836
5.229,0.787
5.23,0.803
5.231,0.807
5.232,0.833
5.233,0.817
5.234,0.833
5.235,0.843
5.236,0.778
5.237,0.787
5.238,0.8
5.239,0.823
5.24,0.83
5.241,0.804
5.242,0.823
5.243,0.833
5.244,0.869
5.245,0.872
5.246,0.885
5.247,0.902
5.248,0.83
5.249,0.846
5.25,0.804
5.251,0.787
5.252,0.784
5.253,0.806
5.254,0.777
5.255,0.777
5.256,0.813
5.257,0.803
5.258,0.797
5.259,0.813
5.26,0.833
5.261,0.817
5.262,0.833
5.263,0.791
5.264,0.852
5.265,0.892
5.266,0.84
5.267,0.807
5.268,0.839
5.269,0.859
5.27,0.846
5.271,0.843
5.272,0.853
5.273,0.84
5.274,0.81
5.275,0.813
5.276,0.852
5.277,0.794
5.278,0.836
5.279,0.813
5.28,0.8
5.281,0.8
5.282,0.836
5.283,0.833
5.284,0.862
5.285,0.833
5.286,0.843
5.287,0.849
5.288,0.84
5.289,0.804
5.29,0.807
5.291,0.842
5.292,0.839
5.293,0.849
5.294,0.81
5.295,0.846
5.296,0.823
5.297,0.794
5.298,0.806
5.299,0.784
5.3,0.806
5.301,0.816
5.302,0.823
5.303,0.817
5.304,0.797
5.305,0.82
5.306,0.787
5.307,0.832
5.308,0.849
5.309,0.801
5.31,0.816
5.311,0.823
5.312,0.755
5.313,0.79
5.314,0.803
5.315,0.829
5.316,0.784
5.317,0.771
5.318,0.796
5.319,0.787
5.32,0.819
5.321,0.836
5.322,0.8
5.323,0.839
5.324,0.781
5.325,0.826
5.326,0.791
5.327,0.806
5.328,0.826
5.329,0.833
5.33,0.83
5.331,0.823
5.332,0.791
5.333,0.79
5.334,0.78
5.335,0.764
5.336,0.783
5.337,0.787
5.338,0.797
5.339,0.803
5.34,0.79
5.341,0.8
5.342,0.833
5.343,0.813
5.344,0.784
5.345,0.819
5.346,0.82
5.347,0.807
5.348,0.794
5.349,0.839
5.35,0.774
5.351,0.797
5.352,0.8
5.353,0.787
5.354,0.774
5.355,0.774
5.356,0.78
5.357,0.797
5.358,0.787
5.359,0.787
5.36,0.79
5.361,0.751
5.362,0.813
5.363,0.787
5.364,0.8
5.365,0.813
5.366,0.82
5.367,0.836
5.368,0.82
5.369,0.81
5.37,0.787
5.371,0.806
5.372,0.826
5.373,0.865
5.374,0.807
5.375,0.813
5.376,0.852
5.377,0.859
5.378,0.797
5.379,0.849
5.38,0.869
5.381,0.879
5.382,0.885
5.383,0.908
5.384,0.944
5.385,0.876
5.386,0.924
5.387,0.938
5.388,0.915
5.389,0.935
5.39,0.931
5.391,0.922
5.392,0.948
5.393,0.948
5.394,0.964
5.395,0.99
5.396,0.935
5.397,0.954
5.398,0.915
5.399,0.97
5.4,0.942
5.401,0.98
5.402,0.991
5.403,0.997
5.404,1.03
5.405,1.011
5.406,1.03
5.407,1.017
5.408,1.049
5.409,1.037
5.41,1.017
5.411,1.02
5.412,1.017
5.413,0.988
5.414,0.984
5.415,0.965
5.416,0.981
5.417,0.987
5.418,0.981
5.419,1
5.42,0.978
5.421,0.99
5.422,0.974
5.423,0.994
5.424,0.984
5.425,0.997
5.426,0.984
5.427,0.994
5.428,0.968
5.429,0.951
5.43,0.954
5.431,0.951
5.432,0.902
5.433,0.912
5.434,0.879
5.435,0.872
5.436,0.879
5.437,0.83
5.438,0.839
5.439,0.839
5.44,0.839
5.441,0.83
5.442,0.813
5.443,0.839
5.444,0.833
5.445,0.836
5.446,0.846
5.447,0.817
5.448,0.842
5.449,0.853
5.45,0.827
5.451,0.846
5.452,0.804
5.453,0.803
5.454,0.8
5.455,0.735
5.456,0.78
5.457,0.793
5.458,0.722
5.459,0.741
5.46,0.764
5.461,0.79
5.462,0.826
5.463,0.807
5.464,0.774
5.465,0.787
5.466,0.787
5.467,0.793
5.468,0.774
5.469,0.79
5.47,0.784
5.471,0.777
5.472,0.767
5.473,0.77
5.474,0.761
5.475,0.767
5.476,0.757
5.477,0.748
5.478,0.741
5.479,0.725
5.48,0.75
5.481,0.77
5.482,0.78
5.483,0.823
5.484,0.777
5.485,0.748
5.486,0.773
5.487,0.754
5.488,0.748
5.489,0.764
5.49,0.787
5.491,0.741
5.492,0.764
5.493,0.767
5.494,0.783
5.495,0.764
5.496,0.8
5.497,0.852
5.498,0.82
5.499,0.856
5.5,0.905
5.501,0.918
5.502,0.967
5.503,0.971
5.504,1.036
5.505,1.063
5.506,1.082
5.507,1.131
5.508,1.174
5.509,1.259
5.51,1.283
5.511,1.325
5.512,1.352
5.513,1.394
5.514,1.417
5.515,1.434
5.516,1.395
5.517,1.417
5.518,1.447
5.519,1.425
5.52,1.369
5.521,1.329
5.522,1.355
5.523,1.287
5.524,1.273
5.525,1.231
5.526,1.221
5.527,1.224
5.528,1.149
5.529,1.093
5.53,1.044
5.531,1.063
5.532,0.985
5.533,0.906
5.534,0.801
5.535,0.706
5.536,0.646
5.537,0.577
5.538,0.521
5.539,0.488
5.54,0.465
5.541,0.458
5.542,0.41
5.543,0.38
5.544,0.353
5.545,0.314
5.546,0.366
5.547,0.327
5.548,0.333
5.549,0.373
5.55,0.373
5.551,0.34
5.552,0.291
5.553,0.268
5.554,0.226
5.555,0.199
5.556,0.17
5.557,0.182
5.558,0.205
5.559,0.264
5.56,0.31
5.561,0.337
5.562,0.373
5.563,0.409
5.564,0.399
5.565,0.419
5.566,0.474
5.567,0.468
5.568,0.491
5.569,0.53
5.57,0.537
5.571,0.56
5.572,0.563
5.573,0.564
5.574,0.593
5.575,0.622
5.576,0.632
5.577,0.652
5.578,0.672
5.579,0.701
5.58,0.724
5.581,0.744
5.582,0.751
5.583,0.751
5.584,0.764
5.585,0.787
5.586,0.787
5.587,0.793
5.588,0.816
5.589,0.829
5.59,0.8
5.591,0.797
5.592,0.787
5.593,0.78
5.594,0.793
5.595,0.816
5.596,0.781
5.597,0.784
5.598,0.793
5.599,0.784
5.6,0.793
5.601,0.806
5.602,0.807
5.603,0.81
5.604,0.807
5.605,0.836
5.606,0.82
5.607,0.833
5.608,0.852
5.609,0.83
5.61,0.81
5.611,0.829
5.612,0.82
5.613,0.803
5.614,0.784
5.615,0.813
5.616,0.797
5.617,0.8
5.618,0.784
5.619,0.816
5.62,0.794
5.621,0.833
5.622,0.865
5.623,0.827
5.624,0.843
5.625,0.843
5.626,0.849
5.627,0.82
5.628,0.826
5.629,0.833
5.63,0.813
5.631,0.803
5.632,0.839
5.633,0.817
5.634,0.8
5.635,0.794
5.636,0.81
5.637,0.836
5.638,0.82
5.639,0.826
5.64,0.833
5.641,0.843
5.642,0.856
5.643,0.846
5.644,0.849
5.645,0.843
5.646,0.846
5.647,0.846
5.648,0.846
5.649,0.866
5.65,0.849
5.651,0.84
5.652,0.83
5.653,0.826
5.654,0.83
5.655,0.83
5.656,0.791
5.657,0.813
5.658,0.816
5.659,0.813
5.66,0.813
5.661,0.836
5.662,0.852
5.663,0.859
5.664,0.846
5.665,0.846
5.666,0.853
5.667,0.862
5.668,0.849
5.669,0.853
5.67,0.849
5.671,0.846
5.672,0.849
5.673,0.859
5.674,0.846
5.675,0.84
5.676,0.865
5.677,0.846
5.678,0.804
5.679,0.859
5.68,0.856
5.681,0.859
5.682,0.859
5.683,0.853
5.684,0.853
5.685,0.866
5.686,0.879
5.687,0.885
5.688,0.876
5.689,0.882
5.69,0.879
5.691,0.872
5.692,0.853
5.693,0.862
5.694,0.866
5.695,0.879
5.696,0.863
5.697,0.833
5.698,0.839
5.699,0.865
5.7,0.879
5.701,0.846
5.702,0.875
5.703,0.895
5.704,0.892
5.705,0.886
5.706,0.911
5.707,0.899
5.708,0.908
5.709,0.892
5.71,0.895
5.711,0.886
5.712,0.885
5.713,0.892
5.714,0.847
5.715,0.843
5.716,0.846
5.717,0.866
5.718,0.885
5.719,0.869
5.72,0.856
5.721,0.879
5.722,0.892
5.723,0.895
5.724,0.889
5.725,0.892
5.726,0.912
5.727,0.938
5.728,0.906
5.729,0.899
5.73,0.912
5.731,0.905
5.732,0.892
5.733,0.889
5.734,0.863
5.735,0.895
5.736,0.905
5.737,0.889
5.738,0.879
5.739,0.885
5.74,0.911
5.741,0.905
5.742,0.925
5.743,0.918
5.744,0.912
5.745,0.954
5.746,0.951
5.747,0.902
5.748,0.925
5.749,0.912
5.75,0.912
5.751,0.886
5.752,0.882
5.753,0.902
5.754,0.899
5.755,0.918
5.756,0.899
5.757,0.879
5.758,0.902
5.759,0.918
5.76,0.941
5.761,0.932
5.762,0.931
5.763,0.948
5.764,0.951
5.765,0.945
5.766,0.932
5.767,0.944
5.768,0.977
5.769,0.942
5.77,0.912
5.771,0.918
5.772,0.941
5.773,0.922
5.774,0.918
5.775,0.905
5.776,0.908
5.777,0.925
5.778,0.909
5.779,0.899
5.78,0.931
5.781,0.915
5.782,0.948
5.783,0.954
5.784,0.935
5.785,0.967
5.786,0.961
5.787,0.961
5.788,0.958
5.789,0.938
5.79,0.935
5.791,0.958
5.792,0.935
5.793,0.925
5.794,0.928
5.795,0.931
5.796,0.948
5.797,0.932
5.798,0.909
5.799,0.941
5.8,0.961
5.801,0.945
5.802,0.964
5.803,0.948
5.804,0.964
5.805,0.955
5.806,0.977
5.807,0.971
5.808,0.968
5.809,0.984
5.81,0.961
5.811,0.974
5.812,0.955
5.813,0.948
5.814,0.954
5.815,0.935
5.816,0.931
5.817,0.938
5.818,0.932
5.819,0.928
5.82,0.941
5.821,0.954
5.822,0.961
5.823,0.987
5.824,0.968
5.825,0.984
5.826,0.991
5.827,0.994
5.828,0.991
5.829,0.971
5.83,0.974
5.831,0.977
5.832,0.964
5.833,0.958
5.834,0.961
5.835,0.945
5.836,0.951
5.837,0.98
5.838,0.981
5.839,0.987
5.84,0.984
5.841,0.994
5.842,0.994
5.843,0.994
5.844,1.01
5.845,0.994
5.846,1.01
5.847,1.007
5.848,1.02
5.849,1.014
5.85,1.01
5.851,1.004
5.852,1.017
5.853,1.027
5.854,1.01
5.855,1.02
5.856,1.036
5.857,1.02
5.858,1.014
5.859,1.023
5.86,1.04
5.861,1.053
5.862,1.05
5.863,1.066
5.864,1.06
5.865,1.05
5.866,1.066
5.867,1.06
5.868,1.04
5.869,1.04
5.87,1.037
5.871,1.024
5.872,1.017
5.873,1.036
5.874,1.02
5.875,1.001
5.876,1.004
5.877,0.997
5.878,1
5.879,1.004
5.88,0.997
5.881,1
5.882,1
5.883,1.013
5.884,1.001
5.885,0.978
5.886,0.987
5.887,0.984
5.888,1
5.889,0.965
5.89,0.951
5.891,0.964
5.892,0.935
5.893,0.922
5.894,0.905
5.895,0.915
5.896,0.896
5.897,0.905
5.898,0.902
5.899,0.899
5.9,0.905
5.901,0.899
5.902,0.902
5.903,0.921
5.904,0.912
5.905,0.922
5.906,0.935
5.907,0.915
5.908,0.925
5.909,0.902
5.91,0.905
5.911,0.892
5.912,0.886
5.913,0.872
5.914,0.863
5.915,0.875
5.916,0.869
5.917,0.853
5.918,0.853
5.919,0.866
5.92,0.879
5.921,0.879
5.922,0.885
5.923,0.889
5.924,0.892
5.925,0.886
5.926,0.879
5.927,0.872
5.928,0.895
5.929,0.882
5.93,0.863
5.931,0.846
5.932,0.853
5.933,0.83
5.934,0.839
5.935,0.83
5.936,0.839
5.937,0.846
5.938,0.872
5.939,0.853
5.94,0.869
5.941,0.885
5.942,0.859
5.943,0.866
5.944,0.862
5.945,0.866
5.946,0.846
5.947,0.869
5.948,0.872
5.949,0.843
5.95,0.839
5.951,0.849
5.952,0.846
5.953,0.833
5.954,0.826
5.955,0.83
5.956,0.83
5.957,0.83
5.958,0.833
5.959,0.836
5.96,0.862
5.961,0.853
5.962,0.849
5.963,0.856
5.964,0.875
5.965,0.859
5.966,0.856
5.967,0.885
5.968,0.863
5.969,0.875
5.97,0.879
5.971,0.866
5.972,0.853
5.973,0.849
5.974,0.846
5.975,0.869
5.976,0.853
5.977,0.833
5.978,0.849
5.979,0.862
5.98,0.882
5.981,0.869
5.982,0.882
5.983,0.869
5.984,0.872
5.985,0.892
5.986,0.882
5.987,0.879
5.988,0.895
5.989,0.892
5.99,0.866
5.991,0.872
5.992,0.882
5.993,0.866
5.994,0.885
5.995,0.869
5.996,0.853
5.997,0.866
5.998,0.879
5.999,0.856
6,0.869
6.001,0.882
6.002,0.905
6.003,0.899
6.004,0.905
6.005,0.892
6.006,0.912
6.007,0.918
6.008,0.922
6.009,0.915
6.01,0.902
6.011,0.892
6.012,0.866
6.013,0.895
6.014,0.866
6.015,0.876
6.016,0.872
6.017,0.856
6.018,0.866
6.019,0.889
6.02,0.885
6.021,0.889
6.022,0.892
6.023,0.915
6.024,0.915
6.025,0.912
6.026,0.915
6.027,0.912
6.028,0.922
6.029,0.905
6.03,0.905
6.031,0.895
6.032,0.876
6.033,0.889
6.034,0.869
6.035,0.872
6.036,0.879
6.037,0.866
6.038,0.872
6.039,0.879
6.04,0.885
6.041,0.898
6.042,0.902
6.043,0.892
6.044,0.889
6.045,0.895
6.046,0.908
6.047,0.902
6.048,0.918
6.049,0.902
6.05,0.879
6.051,0.895
6.052,0.882
6.053,0.879
6.054,0.856
6.055,0.862
6.056,0.859
6.057,0.856
6.058,0.879
6.059,0.882
6.06,0.866
6.061,0.879
6.062,0.876
6.063,0.876
6.064,0.898
6.065,0.899
6.066,0.886
6.067,0.889
6.068,0.895
6.069,0.863
6.07,0.869
6.071,0.879
6.072,0.846
6.073,0.856
6.074,0.843
6.075,0.833
6.076,0.852
6.077,0.856
6.078,0.846
6.079,0.84
6.08,0.875
6.081,0.859
6.082,0.879
6.083,0.866
6.084,0.872
6.085,0.879
6.086,0.872
6.087,0.876
6.088,0.872
6.089,0.879
6.09,0.869
6.091,0.846
6.092,0.856
6.093,0.843
6.094,0.846
6.095,0.846
6.096,0.846
6.097,0.846
6.098,0.83
6.099,0.843
6.1,0.856
6.101,0.856
6.102,0.879
6.103,0.866
6.104,0.84
6.105,0.882
6.106,0.882
6.107,0.879
6.108,0.866
6.109,0.859
6.11,0.866
6.111,0.869
6.112,0.846
6.113,0.836
6.114,0.839
6.115,0.836
6.116,0.843
6.117,0.843
6.118,0.82
6.119,0.843
6.12,0.856
6.121,0.856
6.122,0.859
6.123,0.853
6.124,0.866
6.125,0.862
6.126,0.862
6.127,0.875
6.128,0.866
6.129,0.869
6.13,0.856
6.131,0.84
6.132,0.843
6.133,0.836
6.134,0.846
6.135,0.833
6.136,0.826
6.137,0.826
6.138,0.813
6.139,0.826
6.14,0.843
6.141,0.839
6.142,0.839
6.143,0.859
6.144,0.84
6.145,0.856
6.146,0.869
6.147,0.872
6.148,0.853
6.149,0.846
6.15,0.856
6.151,0.849
6.152,0.833
6.153,0.823
6.154,0.833
6.155,0.836
6.156,0.833
6.157,0.833
6.158,0.823
6.159,0.83
6.16,0.849
6.161,0.843
6.162,0.846
6.163,0.846
6.164,0.859
6.165,0.859
6.166,0.888
6.167,0.859
6.168,0.862
6.169,0.836
6.17,0.833
6.171,0.843
6.172,0.83
6.173,0.787
6.174,0.81
6.175,0.816
6.176,0.803
6.177,0.81
6.178,0.82
6.179,0.836
6.18,0.846
6.181,0.84
6.182,0.852
6.183,0.869
6.184,0.879
6.185,0.885
6.186,0.895
6.187,0.905
6.188,0.912
6.189,0.905
6.19,0.899
6.191,0.905
6.192,0.889
6.193,0.918
6.194,0.931
6.195,0.928
6.196,0.931
6.197,0.941
6.198,0.958
6.199,0.951
6.2,0.961
6.201,0.987
6.202,0.997
6.203,1.004
6.204,0.997
6.205,0.997
6.206,1.017
6.207,1.001
6.208,1.007
6.209,1.007
6.21,0.997
6.211,1
6.212,1
6.213,1.017
6.214,0.981
6.215,1.01
6.216,1.017
6.217,1.01
6.218,1.007
6.219,1.03
6.22,1.037
6.221,1.043
6.222,1.05
6.223,1.033
6.224,1.043
6.225,1.05
6.226,1.03
6.227,1.024
6.228,1.01
6.229,1.014
6.23,1.017
6.231,1.01
6.232,0.981
6.233,0.981
6.234,0.974
6.235,0.981
6.236,0.961
6.237,0.968
6.238,0.977
6.239,0.971
6.24,0.968
6.241,0.955
6.242,0.974
6.243,0.977
6.244,0.971
6.245,0.955
6.246,0.951
6.247,0.951
6.248,0.954
6.249,0.928
6.25,0.918
6.251,0.912
6.252,0.905
6.253,0.902
6.254,0.882
6.255,0.882
6.256,0.872
6.257,0.879
6.258,0.876
6.259,0.843
6.26,0.866
6.261,0.859
6.262,0.859
6.263,0.862
6.264,0.849
6.265,0.862
6.266,0.866
6.267,0.859
6.268,0.846
6.269,0.856
6.27,0.849
6.271,0.833
6.272,0.836
6.273,0.817
6.274,0.79
6.275,0.813
6.276,0.813
6.277,0.803
6.278,0.803
6.279,0.813
6.28,0.813
6.281,0.787
6.282,0.819
6.283,0.83
6.284,0.826
6.285,0.826
6.286,0.817
6.287,0.823
6.288,0.82
6.289,0.823
6.29,0.807
6.291,0.797
6.292,0.784
6.293,0.787
6.294,0.79
6.295,0.78
6.296,0.764
6.297,0.764
6.298,0.767
6.299,0.764
6.3,0.787
6.301,0.793
6.302,0.797
6.303,0.79
6.304,0.806
6.305,0.807
6.306,0.826
6.307,0.823
6.308,0.83
6.309,0.839
6.31,0.846
6.311,0.866
6.312,0.856
6.313,0.895
6.314,0.892
6.315,0.918
6.316,0.954
6.317,0.961
6.318,0.984
6.319,1.062
6.32,1.089
6.321,1.148
6.322,1.178
6.323,1.249
6.324,1.309
6.325,1.358
6.326,1.391
6.327,1.417
6.328,1.414
6.329,1.385
6.33,1.398
6.331,1.411
6.332,1.379
6.333,1.32
6.334,1.261
6.335,1.214
6.336,1.217
6.337,1.208
6.338,1.185
6.339,1.158
6.34,1.145
6.341,1.142
6.342,1.145
6.343,1.122
6.344,1.096
6.345,1.014
6.346,0.962
6.347,0.87
6.348,0.82
6.349,0.768
6.35,0.735
6.351,0.712
6.352,0.663
6.353,0.63
6.354,0.551
6.355,0.511
6.356,0.462
6.357,0.423
6.358,0.386
6.359,0.36
6.36,0.353
6.361,0.334
6.362,0.301
6.363,0.281
6.364,0.235
6.365,0.212
6.366,0.163
6.367,0.13
6.368,0.146
6.369,0.127
6.37,0.166
6.371,0.163
6.372,0.166
6.373,0.215
6.374,0.251
6.375,0.297
6.376,0.31
6.377,0.324
6.378,0.356
6.379,0.386
6.38,0.454
6.381,0.465
6.382,0.523
6.383,0.579
6.384,0.593
6.385,0.658
6.386,0.708
6.387,0.724
6.388,0.754
6.389,0.761
6.39,0.77
6.391,0.767
6.392,0.787
6.393,0.787
6.394,0.784
6.395,0.797
6.396,0.8
6.397,0.79
6.398,0.784
6.399,0.81
6.4,0.81
6.401,0.81
6.402,0.826
6.403,0.813
6.404,0.816
6.405,0.833
6.406,0.833
6.407,0.839
6.408,0.839
6.409,0.839
6.41,0.817
6.411,0.836
6.412,0.83
6.413,0.81
6.414,0.833
6.415,0.836
6.416,0.804
6.417,0.807
6.418,0.813
6.419,0.826
6.42,0.813
6.421,0.813
6.422,0.836
6.423,0.839
6.424,0.846
6.425,0.849
6.426,0.849
6.427,0.853
6.428,0.856
6.429,0.853
6.43,0.849
6.431,0.833
6.432,0.826
6.433,0.83
6.434,0.836
6.435,0.813
6.436,0.807
6.437,0.829
6.438,0.82
6.439,0.846
6.44,0.833
6.441,0.833
6.442,0.846
6.443,0.846
6.444,0.849
6.445,0.856
6.446,0.869
6.447,0.859
6.448,0.846
6.449,0.853
6.45,0.846
6.451,0.849
6.452,0.833
6.453,0.82
6.454,0.826
6.455,0.836
6.456,0.839
6.457,0.826
6.458,0.826
6.459,0.839
6.46,0.843
6.461,0.856
6.462,0.849
6.463,0.849
6.464,0.859
6.465,0.859
6.466,0.859
6.467,0.859
6.468,0.866
6.469,0.866
6.47,0.846
6.471,0.84
6.472,0.839
6.473,0.852
6.474,0.846
6.475,0.823
6.476,0.833
6.477,0.833
6.478,0.839
6.479,0.833
6.48,0.843
6.481,0.853
6.482,0.836
6.483,0.862
6.484,0.853
6.485,0.859
6.486,0.866
6.487,0.869
6.488,0.866
6.489,0.84
6.49,0.852
6.491,0.856
6.492,0.853
6.493,0.853
6.494,0.836
6.495,0.843
6.496,0.853
6.497,0.846
6.498,0.846
6.499,0.827
6.5,0.852
6.501,0.836
6.502,0.852
6.503,0.866
6.504,0.862
6.505,0.888
6.506,0.889
6.507,0.879
6.508,0.879
6.509,0.885
6.51,0.889
6.511,0.859
6.512,0.866
6.513,0.853
6.514,0.859
6.515,0.869
6.516,0.843
6.517,0.856
6.518,0.853
6.519,0.853
6.52,0.866
6.521,0.862
6.522,0.892
6.523,0.886
6.524,0.885
6.525,0.892
6.526,0.886
6.527,0.902
6.528,0.892
6.529,0.869
6.53,0.882
6.531,0.889
6.532,0.882
6.533,0.863
6.534,0.866
6.535,0.872
6.536,0.859
6.537,0.869
6.538,0.846
6.539,0.866
6.54,0.882
6.541,0.879
6.542,0.885
6.543,0.882
6.544,0.879
6.545,0.895
6.546,0.892
6.547,0.905
6.548,0.879
6.549,0.892
6.55,0.889
6.551,0.872
6.552,0.863
6.553,0.869
6.554,0.889
6.555,0.866
6.556,0.882
6.557,0.882
6.558,0.879
6.559,0.885
6.56,0.892
6.561,0.889
6.562,0.912
6.563,0.892
6.564,0.902
6.565,0.902
6.566,0.915
6.567,0.912
6.568,0.905
6.569,0.905
6.57,0.892
6.571,0.899
6.572,0.899
6.573,0.882
6.574,0.892
6.575,0.895
6.576,0.895
6.577,0.886
6.578,0.885
6.579,0.895
6.58,0.895
6.581,0.918
6.582,0.922
6.583,0.915
6.584,0.935
6.585,0.922
6.586,0.938
6.587,0.919
6.588,0.925
6.589,0.912
6.59,0.922
6.591,0.918
6.592,0.886
6.593,0.895
6.594,0.899
6.595,0.889
6.596,0.882
6.597,0.892
6.598,0.902
6.599,0.905
6.6,0.899
6.601,0.912
6.602,0.908
6.603,0.941
6.604,0.922
6.605,0.925
6.606,0.928
6.607,0.951
6.608,0.948
6.609,0.932
6.61,0.905
6.611,0.918
6.612,0.912
6.613,0.922
6.614,0.912
6.615,0.912
6.616,0.899
6.617,0.889
6.618,0.889
6.619,0.905
6.62,0.912
6.621,0.915
6.622,0.928
6.623,0.935
6.624,0.928
6.625,0.938
6.626,0.954
6.627,0.948
6.628,0.932
6.629,0.922
6.63,0.935
6.631,0.931
6.632,0.915
6.633,0.915
6.634,0.905
6.635,0.928
6.636,0.902
6.637,0.902
6.638,0.905
6.639,0.912
6.64,0.922
6.641,0.918
6.642,0.935
6.643,0.938
6.644,0.938
6.645,0.945
6.646,0.935
6.647,0.948
6.648,0.964
6.649,0.945
6.65,0.935
6.651,0.928
6.652,0.928
6.653,0.918
6.654,0.918
6.655,0.935
6.656,0.922
6.657,0.935
6.658,0.941
6.659,0.941
6.66,0.951
6.661,0.958
6.662,0.977
6.663,0.974
6.664,0.968
6.665,0.977
6.666,0.994
6.667,0.997
6.668,0.981
6.669,0.977
6.67,0.99
6.671,0.978
6.672,0.984
6.673,0.978
6.674,0.987
6.675,0.981
6.676,0.977
6.677,0.99
6.678,0.984
6.679,1.004
6.68,1.01
6.681,0.994
6.682,1.017
6.683,1.01
6.684,1.03
6.685,1.024
6.686,1.03
6.687,1.027
6.688,1.007
6.689,1.017
6.69,1.001
6.691,0.984
6.692,0.994
6.693,0.984
6.694,0.981
6.695,0.974
6.696,0.968
6.697,0.968
6.698,0.971
6.699,0.981
6.7,0.958
6.701,0.984
6.702,0.974
6.703,0.958
6.704,0.971
6.705,0.971
6.706,0.977
6.707,0.961
6.708,0.958
6.709,0.948
6.71,0.948
6.711,0.951
6.712,0.925
6.713,0.915
6.714,0.909
6.715,0.908
6.716,0.899
6.717,0.899
6.718,0.886
6.719,0.895
6.72,0.902
6.721,0.915
6.722,0.902
6.723,0.918
6.724,0.909
6.725,0.918
6.726,0.922
6.727,0.912
6.728,0.918
6.729,0.905
6.73,0.889
6.731,0.895
6.732,0.873
6.733,0.892
6.734,0.876
6.735,0.876
6.736,0.885
6.737,0.859
6.738,0.866
6.739,0.876
6.74,0.879
6.741,0.885
6.742,0.853
6.743,0.882
6.744,0.882
6.745,0.885
6.746,0.898
6.747,0.882
6.748,0.885
6.749,0.876
6.75,0.872
6.751,0.869
6.752,0.846
6.753,0.843
6.754,0.853
6.755,0.866
6.756,0.856
6.757,0.84
6.758,0.865
6.759,0.866
6.76,0.869
6.761,0.853
6.762,0.862
6.763,0.862
6.764,0.869
6.765,0.872
6.766,0.872
6.767,0.876
6.768,0.889
6.769,0.872
6.77,0.872
6.771,0.863
6.772,0.866
6.773,0.846
6.774,0.84
6.775,0.83
6.776,0.826
6.777,0.849
6.778,0.836
6.779,0.833
6.78,0.846
6.781,0.84
6.782,0.872
6.783,0.879
6.784,0.872
6.785,0.876
6.786,0.879
6.787,0.902
6.788,0.882
6.789,0.859
6.79,0.859
6.791,0.866
6.792,0.853
6.793,0.853
6.794,0.84
6.795,0.846
6.796,0.853
6.797,0.843
6.798,0.826
6.799,0.856
6.8,0.872
6.801,0.859
6.802,0.872
6.803,0.872
6.804,0.898
6.805,0.879
6.806,0.879
6.807,0.882
6.808,0.882
6.809,0.866
6.81,0.859
6.811,0.853
6.812,0.859
6.813,0.846
6.814,0.853
6.815,0.856
6.816,0.859
6.817,0.853
6.818,0.859
6.819,0.859
6.82,0.862
6.821,0.888
6.822,0.885
6.823,0.885
6.824,0.889
6.825,0.885
6.826,0.898
6.827,0.892
6.828,0.879
6.829,0.876
6.83,0.879
6.831,0.863
6.832,0.856
6.833,0.853
6.834,0.862
6.835,0.853
6.836,0.856
6.837,0.849
6.838,0.853
6.839,0.869
6.84,0.866
6.841,0.862
6.842,0.862
6.843,0.888
6.844,0.892
6.845,0.882
6.846,0.892
6.847,0.882
6.848,0.885
6.849,0.879
6.85,0.895
6.851,0.879
6.852,0.866
6.853,0.879
6.854,0.859
6.855,0.856
6.856,0.869
6.857,0.853
6.858,0.866
6.859,0.862
6.86,0.862
6.861,0.856
6.862,0.875
6.863,0.889
6.864,0.879
6.865,0.892
6.866,0.899
6.867,0.889
6.868,0.899
6.869,0.879
6.87,0.879
6.871,0.892
6.872,0.866
6.873,0.859
6.874,0.846
6.875,0.853
6.876,0.846
6.877,0.84
6.878,0.859
6.879,0.859
6.88,0.859
6.881,0.862
6.882,0.862
6.883,0.869
6.884,0.882
6.885,0.882
6.886,0.872
6.887,0.882
6.888,0.889
6.889,0.866
6.89,0.869
6.891,0.859
6.892,0.84
6.893,0.849
6.894,0.849
6.895,0.84
6.896,0.836
6.897,0.826
6.898,0.839
6.899,0.839
6.9,0.859
6.901,0.846
6.902,0.856
6.903,0.869
6.904,0.866
6.905,0.866
6.906,0.869
6.907,0.882
6.908,0.876
6.909,0.853
6.91,0.859
6.911,0.843
6.912,0.849
6.913,0.843
6.914,0.833
6.915,0.833
6.916,0.833
6.917,0.836
6.918,0.823
6.919,0.839
6.92,0.856
6.921,0.846
6.922,0.859
6.923,0.836
6.924,0.856
6.925,0.875
6.926,0.863
6.927,0.853
6.928,0.846
6.929,0.866
6.93,0.853
6.931,0.846
6.932,0.846
6.933,0.83
6.934,0.846
6.935,0.827
6.936,0.82
6.937,0.83
6.938,0.839
6.939,0.833
6.94,0.839
6.941,0.836
6.942,0.839
6.943,0.846
6.944,0.846
6.945,0.846
6.946,0.836
6.947,0.862
6.948,0.866
6.949,0.843
6.95,0.833
6.951,0.833
6.952,0.83
6.953,0.82
6.954,0.833
6.955,0.8
6.956,0.813
6.957,0.816
6.958,0.82
6.959,0.817
6.96,0.829
6.961,0.833
6.962,0.843
6.963,0.839
6.964,0.843
6.965,0.843
6.966,0.856
6.967,0.846
6.968,0.833
6.969,0.836
6.97,0.836
6.971,0.83
6.972,0.813
6.973,0.807
6.974,0.816
6.975,0.816
6.976,0.816
6.977,0.794
6.978,0.813
6.979,0.82
6.98,0.823
6.981,0.833
6.982,0.826
6.983,0.843
6.984,0.853
6.985,0.853
6.986,0.853
6.987,0.843
6.988,0.849
6.989,0.833
6.99,0.823
6.991,0.826
6.992,0.813
6.993,0.816
6.994,0.81
6.995,0.807
6.996,0.803
6.997,0.797
6.998,0.813
6.999,0.813
7,0.823
7.001,0.83
7.002,0.83
7.003,0.833
7.004,0.82
7.005,0.839
7.006,0.839
7.007,0.839
7.008,0.843
7.009,0.833
7.01,0.83
7.011,0.826
7.012,0.807
7.013,0.81
7.014,0.807
7.015,0.787
7.016,0.803
7.017,0.8
7.018,0.8
7.019,0.813
7.02,0.826
7.021,0.807
7.022,0.813
7.023,0.826
7.024,0.82
7.025,0.82
7.026,0.846
7.027,0.84
7.028,0.82
7.029,0.82
7.03,0.823
7.031,0.807
7.032,0.81
7.033,0.807
7.034,0.797
7.035,0.803
7.036,0.807
7.037,0.803
7.038,0.8
7.039,0.803
7.04,0.813
7.041,0.816
7.042,0.829
7.043,0.826
7.044,0.82
7.045,0.852
7.046,0.833
7.047,0.836
7.048,0.83
7.049,0.82
7.05,0.826
7.051,0.813
7.052,0.81
7.053,0.797
7.054,0.797
7.055,0.8
7.056,0.787
7.057,0.8
7.058,0.8
7.059,0.813
7.06,0.81
7.061,0.82
7.062,0.82
7.063,0.82
7.064,0.826
7.065,0.83
7.066,0.813
7.067,0.829
7.068,0.83
7.069,0.817
7.07,0.81
7.071,0.794
7.072,0.793
7.073,0.8
7.074,0.81
7.075,0.777
7.076,0.784
7.077,0.797
7.078,0.787
7.079,0.806
7.08,0.807
7.081,0.797
7.082,0.82
7.083,0.813
7.084,0.826
7.085,0.82
7.086,0.823
7.087,0.826
7.088,0.82
7.089,0.813
7.09,0.797
7.091,0.794
7.092,0.8
7.093,0.803
7.094,0.794
7.095,0.784
7.096,0.793
7.097,0.787
7.098,0.787
7.099,0.81
7.1,0.794
7.101,0.819
7.102,0.826
7.103,0.817
7.104,0.82
7.105,0.833
7.106,0.843
7.107,0.826
7.108,0.83
7.109,0.83
7.11,0.813
7.111,0.823
7.112,0.787
7.113,0.8
7.114,0.8
7.115,0.79
7.116,0.79
7.117,0.78
7.118,0.8
7.119,0.807
7.12,0.8
7.121,0.807
7.122,0.81
7.123,0.836
7.124,0.843
7.125,0.843
7.126,0.846
7.127,0.859
7.128,0.872
7.129,0.859
7.13,0.853
7.131,0.869
7.132,0.866
7.133,0.882
7.134,0.872
7.135,0.872
7.136,0.885
7.137,0.895
7.138,0.905
7.139,0.902
7.14,0.908
7.141,0.905
7.142,0.938
7.143,0.954
7.144,0.945
7.145,0.954
7.146,0.977
7.147,0.968
7.148,0.961
7.149,0.955
7.15,0.958
7.151,0.958
7.152,0.961
7.153,0.951
7.154,0.941
7.155,0.964
7.156,0.968
7.157,0.955
7.158,0.958
7.159,0.981
7.16,0.984
7.161,0.981
7.162,0.987
7.163,0.984
7.164,0.978
7.165,1.003
7.166,0.984
7.167,0.965
7.168,0.968
7.169,0.961
7.17,0.961
7.171,0.955
7.172,0.928
7.173,0.938
7.174,0.932
7.175,0.925
7.176,0.918
7.177,0.922
7.178,0.918
7.179,0.925
7.18,0.931
7.181,0.912
7.182,0.922
7.183,0.931
7.184,0.925
7.185,0.915
7.186,0.915
7.187,0.928
7.188,0.909
7.189,0.882
7.19,0.876
7.191,0.853
7.192,0.859
7.193,0.856
7.194,0.84
7.195,0.826
7.196,0.82
7.197,0.83
7.198,0.817
7.199,0.82
7.2,0.817
7.201,0.823
7.202,0.833
7.203,0.813
7.204,0.823
7.205,0.83
7.206,0.836
7.207,0.83
7.208,0.813
7.209,0.833
7.21,0.83
7.211,0.797
7.212,0.797
7.213,0.787
7.214,0.787
7.215,0.774
7.216,0.767
7.217,0.735
7.218,0.764
7.219,0.77
7.22,0.757
7.221,0.77
7.222,0.787
7.223,0.784
7.224,0.787
7.225,0.797
7.226,0.797
7.227,0.8
7.228,0.794
7.229,0.787
7.23,0.767
7.231,0.78
7.232,0.767
7.233,0.748
7.234,0.764
7.235,0.757
7.236,0.754
7.237,0.754
7.238,0.751
7.239,0.754
7.24,0.754
7.241,0.777
7.242,0.777
7.243,0.774
7.244,0.787
7.245,0.787
7.246,0.806
7.247,0.81
7.248,0.81
7.249,0.813
7.25,0.816
7.251,0.826
7.252,0.833
7.253,0.852
7.254,0.869
7.255,0.879
7.256,0.921
7.257,0.941
7.258,0.98
7.259,1.03
7.26,1.082
7.261,1.118
7.262,1.174
7.263,1.246
7.264,1.286
7.265,1.306
7.266,1.345
7.267,1.339
7.268,1.332
7.269,1.349
7.27,1.336
7.271,1.319
7.272,1.274
7.273,1.234
7.274,1.188
7.275,1.194
7.276,1.185
7.277,1.162
7.278,1.168
7.279,1.184
7.28,1.168
7.281,1.188
7.282,1.171
7.283,1.165
7.284,1.096
7.285,1.057
7.286,0.988
7.287,0.952
7.288,0.906
7.289,0.869
7.29,0.84
7.291,0.82
7.292,0.761
7.293,0.689
7.294,0.662
7.295,0.633
7.296,0.577
7.297,0.531
7.298,0.498
7.299,0.469
7.3,0.442
7.301,0.4
7.302,0.36
7.303,0.318
7.304,0.262
7.305,0.212
7.306,0.17
7.307,0.182
7.308,0.192
7.309,0.202
7.31,0.235
7.311,0.219
7.312,0.254
7.313,0.3
7.314,0.301
7.315,0.33
7.316,0.353
7.317,0.382
7.318,0.386
7.319,0.438
7.32,0.474
7.321,0.504
7.322,0.569
7.323,0.586
7.324,0.616
7.325,0.665
7.326,0.701
7.327,0.714
7.328,0.721
7.329,0.728
7.33,0.747
7.331,0.744
7.332,0.744
7.333,0.744
7.334,0.77
7.335,0.78
7.336,0.774
7.337,0.771
7.338,0.777
7.339,0.8
7.34,0.794
7.341,0.787
7.342,0.8
7.343,0.807
7.344,0.82
7.345,0.826
7.346,0.804
7.347,0.813
7.348,0.813
7.349,0.807
7.35,0.755
7.351,0.79
7.352,0.787
7.353,0.784
7.354,0.79
7.355,0.777
7.356,0.784
7.357,0.784
7.358,0.784
7.359,0.803
7.36,0.79
7.361,0.813
7.362,0.813
7.363,0.81
7.364,0.829
7.365,0.813
7.366,0.836
7.367,0.83
7.368,0.82
7.369,0.81
7.37,0.82
7.371,0.813
7.372,0.8
7.373,0.8
7.374,0.797
7.375,0.787
7.376,0.79
7.377,0.784
7.378,0.78
7.379,0.803
7.38,0.8
7.381,0.807
7.382,0.813
7.383,0.82
7.384,0.833
7.385,0.836
7.386,0.843
7.387,0.826
7.388,0.833
7.389,0.826
7.39,0.82
7.391,0.82
7.392,0.82
7.393,0.82
7.394,0.81
7.395,0.807
7.396,0.807
7.397,0.807
7.398,0.826
7.399,0.813
7.4,0.81
7.401,0.829
7.402,0.83
7.403,0.826
7.404,0.82
7.405,0.839
7.406,0.836
7.407,0.839
7.408,0.839
7.409,0.826
7.41,0.833
7.411,0.826
7.412,0.807
7.413,0.807
7.414,0.813
7.415,0.826
7.416,0.807
7.417,0.81
7.418,0.816
7.419,0.813
7.42,0.826
7.421,0.82
7.422,0.83
7.423,0.836
7.424,0.836
7.425,0.83
7.426,0.826
7.427,0.843
7.428,0.836
7.429,0.823
7.43,0.826
7.431,0.8
7.432,0.82
7.433,0.823
7.434,0.817
7.435,0.803
7.436,0.81
7.437,0.82
7.438,0.813
7.439,0.829
7.44,0.836
7.441,0.833
7.442,0.862
7.443,0.846
7.444,0.833
7.445,0.849
7.446,0.862
7.447,0.853
7.448,0.846
7.449,0.836
7.45,0.846
7.451,0.833
7.452,0.836
7.453,0.813
7.454,0.823
7.455,0.839
7.456,0.83
7.457,0.817
7.458,0.813
7.459,0.839
7.46,0.846
7.461,0.846
7.462,0.846
7.463,0.833
7.464,0.865
7.465,0.869
7.466,0.859
7.467,0.875
7.468,0.876
7.469,0.859
7.47,0.853
7.471,0.856
7.472,0.84
7.473,0.836
7.474,0.849
7.475,0.83
7.476,0.82
7.477,0.83
7.478,0.836
7.479,0.843
7.48,0.839
7.481,0.843
7.482,0.856
7.483,0.846
7.484,0.862
7.485,0.853
7.486,0.866
7.487,0.876
7.488,0.866
7.489,0.856
7.49,0.846
7.491,0.849
7.492,0.849
7.493,0.836
7.494,0.836
7.495,0.826
7.496,0.852
7.497,0.846
7.498,0.827
7.499,0.856
7.5,0.856
7.501,0.875
7.502,0.869
7.503,0.866
7.504,0.866
7.505,0.879
7.506,0.882
7.507,0.872
7.508,0.879
7.509,0.882
7.51,0.866
7.511,0.862
7.512,0.853
7.513,0.862
7.514,0.862
7.515,0.866
7.516,0.859
7.517,0.856
7.518,0.872
7.519,0.863
7.52,0.872
7.521,0.879
7.522,0.882
7.523,0.892
7.524,0.886
7.525,0.889
7.526,0.895
7.527,0.889
7.528,0.892
7.529,0.882
7.53,0.872
7.531,0.879
7.532,0.863
7.533,0.869
7.534,0.85
7.535,0.866
7.536,0.859
7.537,0.869
7.538,0.866
7.539,0.869
7.54,0.879
7.541,0.876
7.542,0.876
7.543,0.902
7.544,0.886
7.545,0.892
7.546,0.899
7.547,0.889
7.548,0.892
7.549,0.879
7.55,0.889
7.551,0.879
7.552,0.869
7.553,0.872
7.554,0.859
7.555,0.856
7.556,0.859
7.557,0.869
7.558,0.863
7.559,0.869
7.56,0.876
7.561,0.879
7.562,0.895
7.563,0.892
7.564,0.892
7.565,0.899
7.566,0.908
7.567,0.908
7.568,0.886
7.569,0.885
7.57,0.889
7.571,0.879
7.572,0.882
7.573,0.863
7.574,0.872
7.575,0.885
7.576,0.869
7.577,0.866
7.578,0.859
7.579,0.872
7.58,0.869
7.581,0.879
7.582,0.889
7.583,0.879
7.584,0.905
7.585,0.912
7.586,0.899
7.587,0.908
7.588,0.908
7.589,0.899
7.59,0.889
7.591,0.895
7.592,0.879
7.593,0.872
7.594,0.892
7.595,0.886
7.596,0.866
7.597,0.882
7.598,0.879
7.599,0.905
7.6,0.899
7.601,0.905
7.602,0.925
7.603,0.912
7.604,0.922
7.605,0.912
7.606,0.944
7.607,0.958
7.608,0.935
7.609,0.935
7.61,0.931
7.611,0.928
7.612,0.931
7.613,0.931
7.614,0.925
7.615,0.915
7.616,0.935
7.617,0.912
7.618,0.922
7.619,0.948
7.62,0.958
7.621,0.951
7.622,0.954
7.623,0.961
7.624,0.977
7.625,0.964
7.626,0.977
7.627,0.974
7.628,0.984
7.629,0.971
7.63,0.958
7.631,0.971
7.632,0.958
7.633,0.968
7.634,0.945
7.635,0.951
7.636,0.935
7.637,0.935
7.638,0.945
7.639,0.945
7.64,0.935
7.641,0.951
7.642,0.951
7.643,0.951
7.644,0.941
7.645,0.958
7.646,0.954
7.647,0.951
7.648,0.951
7.649,0.932
7.65,0.944
7.651,0.941
7.652,0.915
7.653,0.905
7.654,0.899
7.655,0.908
7.656,0.889
7.657,0.882
7.658,0.889
7.659,0.882
7.66,0.885
7.661,0.885
7.662,0.895
7.663,0.899
7.664,0.892
7.665,0.886
7.666,0.876
7.667,0.895
7.668,0.892
7.669,0.879
7.67,0.885
7.671,0.859
7.672,0.879
7.673,0.859
7.674,0.843
7.675,0.853
7.676,0.849
7.677,0.859
7.678,0.849
7.679,0.843
7.68,0.853
7.681,0.856
7.682,0.875
7.683,0.859
7.684,0.856
7.685,0.866
7.686,0.879
7.687,0.872
7.688,0.853
7.689,0.856
7.69,0.856
7.691,0.849
7.692,0.833
7.693,0.82
7.694,0.833
7.695,0.836
7.696,0.82
7.697,0.813
7.698,0.826
7.699,0.846
7.7,0.846
7.701,0.853
7.702,0.856
7.703,0.849
7.704,0.869
7.705,0.856
7.706,0.849
7.707,0.862
7.708,0.856
7.709,0.846
7.71,0.836
7.711,0.82
7.712,0.82
7.713,0.826
7.714,0.82
7.715,0.813
7.716,0.807
7.717,0.82
7.718,0.813
7.719,0.823
7.72,0.82
7.721,0.83
7.722,0.843
7.723,0.849
7.724,0.836
7.725,0.843
7.726,0.862
7.727,0.853
7.728,0.84
7.729,0.836
7.73,0.839
7.731,0.843
7.732,0.83
7.733,0.807
7.734,0.81
7.735,0.826
7.736,0.826
7.737,0.817
7.738,0.803
7.739,0.833
7.74,0.823
7.741,0.83
7.742,0.843
7.743,0.839
7.744,0.856
7.745,0.859
7.746,0.849
7.747,0.843
7.748,0.843
7.749,0.859
7.75,0.849
7.751,0.853
7.752,0.836
7.753,0.839
7.754,0.836
7.755,0.833
7.756,0.833
7.757,0.826
7.758,0.846
7.759,0.843
7.76,0.833
7.761,0.852
7.762,0.846
7.763,0.862
7.764,0.866
7.765,0.859
7.766,0.872
7.767,0.856
7.768,0.872
7.769,0.843
7.77,0.856
7.771,0.856
7.772,0.843
7.773,0.836
7.774,0.826
7.775,0.843
7.776,0.836
7.777,0.836
7.778,0.843
7.779,0.846
7.78,0.866
7.781,0.862
7.782,0.846
7.783,0.862
7.784,0.856
7.785,0.869
7.786,0.866
7.787,0.856
7.788,0.859
7.789,0.853
7.79,0.843
7.791,0.826
7.792,0.843
7.793,0.849
7.794,0.83
7.795,0.836
7.796,0.804
7.797,0.829
7.798,0.833
7.799,0.852
7.8,0.856
7.801,0.843
7.802,0.872
7.803,0.859
7.804,0.856
7.805,0.866
7.806,0.869
7.807,0.872
7.808,0.859
7.809,0.856
7.81,0.849
7.811,0.84
7.812,0.836
7.813,0.83
7.814,0.839
7.815,0.836
7.816,0.813
7.817,0.826
7.818,0.817
7.819,0.839
7.82,0.839
7.821,0.843
7.822,0.853
7.823,0.846
7.824,0.856
7.825,0.846
7.826,0.853
7.827,0.856
7.828,0.856
7.829,0.856
7.83,0.849
7.831,0.833
7.832,0.83
7.833,0.826
7.834,0.836
7.835,0.81
7.836,0.803
7.837,0.813
7.838,0.82
7.839,0.823
7.84,0.81
7.841,0.81
7.842,0.836
7.843,0.843
7.844,0.836
7.845,0.836
7.846,0.846
7.847,0.849
7.848,0.82
7.849,0.833
7.85,0.826
7.851,0.81
7.852,0.816
7.853,0.807
7.854,0.813
7.855,0.813
7.856,0.816
7.857,0.794
7.858,0.793
7.859,0.797
7.86,0.826
7.861,0.839
7.862,0.826
7.863,0.813
7.864,0.833
7.865,0.846
7.866,0.853
7.867,0.83
7.868,0.833
7.869,0.836
7.87,0.813
7.871,0.82
7.872,0.794
7.873,0.8
7.874,0.8
7.875,0.807
7.876,0.79
7.877,0.79
7.878,0.8
7.879,0.82
7.88,0.81
7.881,0.823
7.882,0.826
7.883,0.83
7.884,0.826
7.885,0.817
7.886,0.813
7.887,0.833
7.888,0.843
7.889,0.813
7.89,0.803
7.891,0.81
7.892,0.803
7.893,0.807
7.894,0.803
7.895,0.787
7.896,0.79
7.897,0.797
7.898,0.813
7.899,0.803
7.9,0.813
7.901,0.81
7.902,0.82
7.903,0.826
7.904,0.807
7.905,0.82
7.906,0.839
7.907,0.82
7.908,0.81
7.909,0.81
7.91,0.82
7.911,0.813
7.912,0.803
7.913,0.813
7.914,0.79
7.915,0.81
7.916,0.794
7.917,0.777
7.918,0.793
7.919,0.797
7.92,0.807
7.921,0.803
7.922,0.813
7.923,0.82
7.924,0.82
7.925,0.826
7.926,0.82
7.927,0.817
7.928,0.823
7.929,0.82
7.93,0.817
7.931,0.807
7.932,0.8
7.933,0.79
7.934,0.787
7.935,0.803
7.936,0.784
7.937,0.8
7.938,0.8
7.939,0.794
7.94,0.793
7.941,0.806
7.942,0.826
7.943,0.823
7.944,0.813
7.945,0.816
7.946,0.823
7.947,0.852
7.948,0.827
7.949,0.8
7.95,0.81
7.951,0.79
7.952,0.793
7.953,0.784
7.954,0.78
7.955,0.774
7.956,0.777
7.957,0.784
7.958,0.78
7.959,0.79
7.96,0.803
7.961,0.797
7.962,0.816
7.963,0.797
7.964,0.81
7.965,0.81
7.966,0.816
7.967,0.82
7.968,0.807
7.969,0.797
7.97,0.807
7.971,0.794
7.972,0.787
7.973,0.774
7.974,0.793
7.975,0.793
7.976,0.78
7.977,0.774
7.978,0.777
7.979,0.806
7.98,0.8
7.981,0.794
7.982,0.81
7.983,0.803
7.984,0.807
7.985,0.81
7.986,0.803
7.987,0.813
7.988,0.816
7.989,0.813
7.99,0.8
7.991,0.807
7.992,0.797
7.993,0.79
7.994,0.793
7.995,0.793
7.996,0.79
7.997,0.793
7.998,0.787
7.999,0.793
8,0.787
8.001,0.81
8.002,0.803
8.003,0.803
8.004,0.816
8.005,0.816
8.006,0.813
8.007,0.813
8.008,0.82
8.009,0.81
8.01,0.813
8.011,0.81
8.012,0.784
8.013,0.8
8.014,0.79
8.015,0.771
8.016,0.79
8.017,0.793
8.018,0.8
8.019,0.797
8.02,0.79
8.021,0.793
8.022,0.8
8.023,0.82
8.024,0.81
8.025,0.803
8.026,0.82
8.027,0.826
8.028,0.8
8.029,0.797
8.03,0.803
8.031,0.797
8.032,0.79
8.033,0.79
8.034,0.777
8.035,0.793
8.036,0.784
8.037,0.771
8.038,0.78
8.039,0.793
8.04,0.813
8.041,0.807
8.042,0.816
8.043,0.813
8.044,0.816
8.045,0.833
8.046,0.823
8.047,0.81
8.048,0.82
8.049,0.803
8.05,0.803
8.051,0.797
8.052,0.794
8.053,0.787
8.054,0.793
8.055,0.79
8.056,0.774
8.057,0.78
8.058,0.793
8.059,0.797
8.06,0.807
8.061,0.794
8.062,0.816
8.063,0.813
8.064,0.813
8.065,0.803
8.066,0.81
8.067,0.836
8.068,0.82
8.069,0.79
8.07,0.806
8.071,0.79
8.072,0.797
8.073,0.79
8.074,0.784
8.075,0.774
8.076,0.774
8.077,0.787
8.078,0.777
8.079,0.787
8.08,0.787
8.081,0.79
8.082,0.806
8.083,0.79
8.084,0.8
8.085,0.81
8.086,0.82
8.087,0.82
8.088,0.8
8.089,0.816
8.09,0.816
8.091,0.794
8.092,0.793
8.093,0.784
8.094,0.803
8.095,0.803
8.096,0.777
8.097,0.767
8.098,0.787
8.099,0.803
8.1,0.797
8.101,0.8
8.102,0.816
8.103,0.81
8.104,0.82
8.105,0.826
8.106,0.817
8.107,0.826
8.108,0.82
8.109,0.81
8.11,0.794
8.111,0.806
8.112,0.803
8.113,0.797
8.114,0.813
8.115,0.81
8.116,0.803
8.117,0.797
8.118,0.807
8.119,0.816
8.12,0.833
8.121,0.852
8.122,0.849
8.123,0.849
8.124,0.862
8.125,0.853
8.126,0.872
8.127,0.892
8.128,0.882
8.129,0.882
8.13,0.879
8.131,0.882
8.132,0.876
8.133,0.892
8.134,0.889
8.135,0.879
8.136,0.898
8.137,0.908
8.138,0.918
8.139,0.935
8.14,0.948
8.141,0.954
8.142,0.964
8.143,0.964
8.144,0.964
8.145,0.958
8.146,0.974
8.147,0.968
8.148,0.981
8.149,0.968
8.15,0.961
8.151,0.974
8.152,0.981
8.153,0.971
8.154,0.968
8.155,0.981
8.156,0.961
8.157,0.925
8.158,0.941
8.159,0.948
8.16,0.951
8.161,0.967
8.162,0.932
8.163,0.964
8.164,0.961
8.165,0.964
8.166,0.971
8.167,0.961
8.168,0.964
8.169,0.951
8.17,0.958
8.171,0.941
8.172,0.935
8.173,0.918
8.174,0.918
8.175,0.925
8.176,0.912
8.177,0.908
8.178,0.912
8.179,0.899
8.18,0.899
8.181,0.882
8.182,0.882
8.183,0.885
8.184,0.866
8.185,0.869
8.186,0.866
8.187,0.895
8.188,0.886
8.189,0.859
8.19,0.866
8.191,0.846
8.192,0.833
8.193,0.826
8.194,0.81
8.195,0.803
8.196,0.797
8.197,0.813
8.198,0.794
8.199,0.787
8.2,0.793
8.201,0.816
8.202,0.82
8.203,0.813
8.204,0.816
8.205,0.82
8.206,0.817
8.207,0.813
8.208,0.787
8.209,0.8
8.21,0.794
8.211,0.777
8.212,0.774
8.213,0.761
8.214,0.77
8.215,0.774
8.216,0.754
8.217,0.751
8.218,0.761
8.219,0.793
8.22,0.774
8.221,0.784
8.222,0.777
8.223,0.771
8.224,0.79
8.225,0.79
8.226,0.78
8.227,0.8
8.228,0.79
8.229,0.784
8.23,0.761
8.231,0.774
8.232,0.764
8.233,0.761
8.234,0.78
8.235,0.764
8.236,0.764
8.237,0.774
8.238,0.78
8.239,0.8
8.24,0.81
8.241,0.839
8.242,0.833
8.243,0.843
8.244,0.862
8.245,0.862
8.246,0.888
8.247,0.905
8.248,0.915
8.249,0.918
8.25,0.935
8.251,0.938
8.252,0.971
8.253,1.007
8.254,1.027
8.255,1.066
8.256,1.102
8.257,1.132
8.258,1.164
8.259,1.187
8.26,1.175
8.261,1.194
8.262,1.23
8.263,1.221
8.264,1.182
8.265,1.152
8.266,1.165
8.267,1.158
8.268,1.178
8.269,1.162
8.27,1.158
8.271,1.161
8.272,1.145
8.273,1.122
8.274,1.129
8.275,1.122
8.276,1.083
8.277,1.024
8.278,0.981
8.279,0.945
8.28,0.899
8.281,0.895
8.282,0.873
8.283,0.863
8.284,0.83
8.285,0.804
8.286,0.758
8.287,0.731
8.288,0.715
8.289,0.669
8.29,0.633
8.291,0.58
8.292,0.531
8.293,0.508
8.294,0.472
8.295,0.406
8.296,0.334
8.297,0.291
8.298,0.278
8.299,0.261
8.3,0.258
8.301,0.261
8.302,0.3
8.303,0.33
8.304,0.353
8.305,0.382
8.306,0.412
8.307,0.448
8.308,0.432
8.309,0.435
8.31,0.458
8.311,0.458
8.312,0.497
8.313,0.504
8.314,0.511
8.315,0.53
8.316,0.57
8.317,0.593
8.318,0.606
8.319,0.655
8.32,0.688
8.321,0.695
8.322,0.721
8.323,0.734
8.324,0.76
8.325,0.77
8.326,0.78
8.327,0.793
8.328,0.79
8.329,0.797
8.33,0.8
8.331,0.787
8.332,0.79
8.333,0.777
8.334,0.797
8.335,0.79
8.336,0.784
8.337,0.777
8.338,0.787
8.339,0.81
8.34,0.8
8.341,0.797
8.342,0.81
8.343,0.803
8.344,0.813
8.345,0.82
8.346,0.826
8.347,0.83
8.348,0.83
8.349,0.813
8.35,0.8
8.351,0.816
8.352,0.807
8.353,0.797
8.354,0.807
8.355,0.794
8.356,0.803
8.357,0.807
8.358,0.803
8.359,0.807
8.36,0.803
8.361,0.82
8.362,0.82
8.363,0.823
8.364,0.813
8.365,0.826
8.366,0.833
8.367,0.843
8.368,0.826
8.369,0.836
8.37,0.817
8.371,0.816
8.372,0.807
8.373,0.813
8.374,0.807
8.375,0.79
8.376,0.806
8.377,0.803
8.378,0.807
8.379,0.816
8.38,0.823
8.381,0.83
8.382,0.823
8.383,0.849
8.384,0.84
8.385,0.839
8.386,0.843
8.387,0.826
8.388,0.83
8.389,0.839
8.39,0.826
8.391,0.813
8.392,0.826
8.393,0.826
8.394,0.817
8.395,0.816
8.396,0.829
8.397,0.817
8.398,0.826
8.399,0.82
8.4,0.83
8.401,0.849
8.402,0.84
8.403,0.846
8.404,0.84
8.405,0.856
8.406,0.84
8.407,0.843
8.408,0.853
8.409,0.833
8.41,0.846
8.411,0.827
8.412,0.82
8.413,0.839
8.414,0.836
8.415,0.823
8.416,0.81
8.417,0.816
8.418,0.829
8.419,0.833
8.42,0.833
8.421,0.839
8.422,0.843
8.423,0.846
8.424,0.846
8.425,0.836
8.426,0.862
8.427,0.872
8.428,0.859
8.429,0.84
8.43,0.826
8.431,0.839
8.432,0.849
8.433,0.836
8.434,0.826
8.435,0.83
8.436,0.8
8.437,0.829
8.438,0.813
8.439,0.842
8.44,0.846
8.441,0.83
8.442,0.856
8.443,0.859
8.444,0.856
8.445,0.879
8.446,0.872
8.447,0.869
8.448,0.869
8.449,0.872
8.45,0.863
8.451,0.849
8.452,0.856
8.453,0.846
8.454,0.849
8.455,0.846
8.456,0.84
8.457,0.836
8.458,0.849
8.459,0.856
8.46,0.853
8.461,0.872
8.462,0.85
8.463,0.866
8.464,0.885
8.465,0.889
8.466,0.885
8.467,0.879
8.468,0.885
8.469,0.879
8.47,0.856
8.471,0.882
8.472,0.879
8.473,0.846
8.474,0.846
8.475,0.843
8.476,0.862
8.477,0.862
8.478,0.849
8.479,0.856
8.48,0.872
8.481,0.866
8.482,0.856
8.483,0.888
8.484,0.885
8.485,0.872
8.486,0.882
8.487,0.885
8.488,0.892
8.489,0.869
8.49,0.853
8.491,0.866
8.492,0.856
8.493,0.872
8.494,0.859
8.495,0.843
8.496,0.856
8.497,0.853
8.498,0.866
8.499,0.882
8.5,0.885
8.501,0.889
8.502,0.882
8.503,0.879
8.504,0.879
8.505,0.898
8.506,0.905
8.507,0.879
8.508,0.879
8.509,0.882
8.51,0.885
8.511,0.882
8.512,0.866
8.513,0.869
8.514,0.863
8.515,0.885
8.516,0.869
8.517,0.853
8.518,0.882
8.519,0.879
8.52,0.898
8.521,0.886
8.522,0.892
8.523,0.899
8.524,0.895
8.525,0.908
8.526,0.892
8.527,0.912
8.528,0.905
8.529,0.889
8.53,0.885
8.531,0.882
8.532,0.879
8.533,0.898
8.534,0.899
8.535,0.869
8.536,0.859
8.537,0.885
8.538,0.905
8.539,0.879
8.54,0.879
8.541,0.892
8.542,0.912
8.543,0.905
8.544,0.902
8.545,0.905
8.546,0.925
8.547,0.941
8.548,0.909
8.549,0.902
8.55,0.912
8.551,0.892
8.552,0.879
8.553,0.872
8.554,0.885
8.555,0.879
8.556,0.885
8.557,0.879
8.558,0.866
8.559,0.889
8.56,0.902
8.561,0.902
8.562,0.902
8.563,0.908
8.564,0.912
8.565,0.925
8.566,0.918
8.567,0.915
8.568,0.909
8.569,0.921
8.57,0.905
8.571,0.892
8.572,0.899
8.573,0.895
8.574,0.908
8.575,0.899
8.576,0.886
8.577,0.882
8.578,0.895
8.579,0.899
8.58,0.899
8.581,0.899
8.582,0.902
8.583,0.902
8.584,0.921
8.585,0.922
8.586,0.922
8.587,0.935
8.588,0.925
8.589,0.915
8.59,0.912
8.591,0.928
8.592,0.909
8.593,0.899
8.594,0.915
8.595,0.909
8.596,0.912
8.597,0.925
8.598,0.909
8.599,0.931
8.6,0.938
8.601,0.951
8.602,0.948
8.603,0.945
8.604,0.961
8.605,0.958
8.606,0.964
8.607,0.958
8.608,0.964
8.609,0.974
8.61,0.958
8.611,0.954
8.612,0.954
8.613,0.961
8.614,0.968
8.615,0.945
8.616,0.961
8.617,0.955
8.618,0.964
8.619,0.984
8.62,0.948
8.621,0.977
8.622,0.984
8.623,0.987
8.624,0.978
8.625,0.99
8.626,0.987
8.627,0.978
8.628,0.984
8.629,0.981
8.63,0.981
8.631,0.964
8.632,0.951
8.633,0.951
8.634,0.954
8.635,0.971
8.636,0.951
8.637,0.925
8.638,0.951
8.639,0.945
8.64,0.951
8.641,0.938
8.642,0.941
8.643,0.948
8.644,0.958
8.645,0.958
8.646,0.945
8.647,0.941
8.648,0.938
8.649,0.915
8.65,0.909
8.651,0.895
8.652,0.892
8.653,0.886
8.654,0.882
8.655,0.879
8.656,0.853
8.657,0.872
8.658,0.866
8.659,0.876
8.66,0.885
8.661,0.879
8.662,0.879
8.663,0.885
8.664,0.869
8.665,0.876
8.666,0.879
8.667,0.885
8.668,0.866
8.669,0.856
8.67,0.859
8.671,0.846
8.672,0.859
8.673,0.833
8.674,0.839
8.675,0.83
8.676,0.833
8.677,0.823
8.678,0.823
8.679,0.839
8.68,0.839
8.681,0.836
8.682,0.843
8.683,0.839
8.684,0.839
8.685,0.859
8.686,0.856
8.687,0.843
8.688,0.836
8.689,0.836
8.69,0.836
8.691,0.823
8.692,0.817
8.693,0.81
8.694,0.826
8.695,0.833
8.696,0.813
8.697,0.803
8.698,0.829
8.699,0.826
8.7,0.823
8.701,0.82
8.702,0.83
8.703,0.836
8.704,0.852
8.705,0.846
8.706,0.843
8.707,0.846
8.708,0.846
8.709,0.83
8.71,0.82
8.711,0.82
8.712,0.817
8.713,0.81
8.714,0.81
8.715,0.794
8.716,0.813
8.717,0.82
8.718,0.81
8.719,0.816
8.72,0.826
8.721,0.836
8.722,0.839
8.723,0.833
8.724,0.839
8.725,0.839
8.726,0.859
8.727,0.846
8.728,0.833
8.729,0.839
8.73,0.839
8.731,0.826
8.732,0.833
8.733,0.823
8.734,0.813
8.735,0.816
8.736,0.82
8.737,0.8
8.738,0.816
8.739,0.833
8.74,0.836
8.741,0.846
8.742,0.846
8.743,0.856
8.744,0.853
8.745,0.859
8.746,0.853
8.747,0.853
8.748,0.866
8.749,0.833
8.75,0.817
8.751,0.833
8.752,0.83
8.753,0.836
8.754,0.839
8.755,0.833
8.756,0.826
8.757,0.817
8.758,0.839
8.759,0.83
8.76,0.849
8.761,0.853
8.762,0.859
8.763,0.849
8.764,0.843
8.765,0.862
8.766,0.856
8.767,0.869
8.768,0.866
8.769,0.843
8.77,0.846
8.771,0.84
8.772,0.833
8.773,0.833
8.774,0.839
8.775,0.839
8.776,0.823
8.777,0.83
8.778,0.836
8.779,0.846
8.78,0.849
8.781,0.853
8.782,0.846
8.783,0.856
8.784,0.853
8.785,0.856
8.786,0.856
8.787,0.869
8.788,0.856
8.789,0.856
8.79,0.853
8.791,0.833
8.792,0.839
8.793,0.83
8.794,0.826
8.795,0.817
8.796,0.82
8.797,0.82
8.798,0.823
8.799,0.833
8.8,0.833
8.801,0.849
8.802,0.859
8.803,0.843
8.804,0.853
8.805,0.862
8.806,0.856
8.807,0.862
8.808,0.853
8.809,0.849
8.81,0.849
8.811,0.843
8.812,0.826
8.813,0.804
8.814,0.833
8.815,0.833
8.816,0.807
8.817,0.813
8.818,0.829
8.819,0.843
8.82,0.83
8.821,0.836
8.822,0.839
8.823,0.839
8.824,0.856
8.825,0.84
8.826,0.843
8.827,0.856
8.828,0.836
8.829,0.826
8.83,0.82
8.831,0.823
8.832,0.826
8.833,0.81
8.834,0.816
8.835,0.797
8.836,0.803
8.837,0.816
8.838,0.803
8.839,0.82
8.84,0.83
8.841,0.839
8.842,0.83
8.843,0.839
8.844,0.83
8.845,0.83
8.846,0.852
8.847,0.846
8.848,0.817
8.849,0.81
8.85,0.813
8.851,0.8
8.852,0.81
8.853,0.794
8.854,0.803
8.855,0.8
8.856,0.8
8.857,0.781
8.858,0.79
8.859,0.81
8.86,0.813
8.861,0.807
8.862,0.82
8.863,0.833
8.864,0.83
8.865,0.83
8.866,0.823
8.867,0.82
8.868,0.83
8.869,0.823
8.87,0.804
8.871,0.8
8.872,0.794
8.873,0.803
8.874,0.8
8.875,0.797
8.876,0.79
8.877,0.79
8.878,0.813
8.879,0.797
8.88,0.787
8.881,0.813
8.882,0.807
8.883,0.81
8.884,0.807
8.885,0.807
8.886,0.813
8.887,0.82
8.888,0.813
8.889,0.8
8.89,0.8
8.891,0.79
8.892,0.784
8.893,0.777
8.894,0.767
8.895,0.774
8.896,0.78
8.897,0.777
8.898,0.777
8.899,0.777
8.9,0.8
8.901,0.803
8.902,0.797
8.903,0.81
8.904,0.8
8.905,0.82
8.906,0.82
8.907,0.807
8.908,0.8
8.909,0.807
8.91,0.803
8.911,0.777
8.912,0.777
8.913,0.777
8.914,0.777
8.915,0.777
8.916,0.767
8.917,0.767
8.918,0.774
8.919,0.79
8.92,0.78
8.921,0.79
8.922,0.803
8.923,0.8
8.924,0.79
8.925,0.816
8.926,0.803
8.927,0.82
8.928,0.813
8.929,0.797
8.93,0.794
8.931,0.78
8.932,0.787
8.933,0.771
8.934,0.78
8.935,0.78
8.936,0.774
8.937,0.767
8.938,0.774
8.939,0.79
8.94,0.8
8.941,0.81
8.942,0.803
8.943,0.8
8.944,0.816
8.945,0.797
8.946,0.81
8.947,0.816
8.948,0.813
8.949,0.803
8.95,0.787
8.951,0.78
8.952,0.774
8.953,0.764
8.954,0.774
8.955,0.754
8.956,0.757
8.957,0.774
8.958,0.774
8.959,0.777
8.96,0.771
8.961,0.78
8.962,0.797
8.963,0.794
8.964,0.8
8.965,0.781
8.966,0.806
8.967,0.797
8.968,0.787
8.969,0.793
8.97,0.78
8.971,0.787
8.972,0.787
8.973,0.761
8.974,0.767
8.975,0.761
8.976,0.78
8.977,0.758
8.978,0.774
8.979,0.774
8.98,0.777
8.981,0.784
8.982,0.78
8.983,0.784
8.984,0.793
8.985,0.806
8.986,0.8
8.987,0.787
8.988,0.8
8.989,0.8
8.99,0.777
8.991,0.784
8.992,0.771
8.993,0.774
8.994,0.787
8.995,0.777
8.996,0.777
8.997,0.767
8.998,0.787
8.999,0.78
9,0.774
9.001,0.787
9.002,0.793
9.003,0.793
9.004,0.793
9.005,0.797
9.006,0.794
9.007,0.81
9.008,0.803
9.009,0.774
9.01,0.79
9.011,0.787
9.012,0.777
9.013,0.774
9.014,0.774
9.015,0.771
9.016,0.774
9.017,0.764
9.018,0.774
9.019,0.777
9.02,0.793
9.021,0.78
9.022,0.797
9.023,0.79
9.024,0.79
9.025,0.79
9.026,0.784
9.027,0.787
9.028,0.787
9.029,0.784
9.03,0.777
9.031,0.754
9.032,0.767
9.033,0.767
9.034,0.761
9.035,0.774
9.036,0.748
9.037,0.754
9.038,0.764
9.039,0.783
9.04,0.784
9.041,0.777
9.042,0.8
9.043,0.797
9.044,0.794
9.045,0.803
9.046,0.803
9.047,0.807
9.048,0.803
9.049,0.787
9.05,0.8
9.051,0.79
9.052,0.8
9.053,0.774
9.054,0.771
9.055,0.774
9.056,0.771
9.057,0.783
9.058,0.774
9.059,0.767
9.06,0.777
9.061,0.806
9.062,0.79
9.063,0.79
9.064,0.806
9.065,0.803
9.066,0.807
9.067,0.82
9.068,0.8
9.069,0.8
9.07,0.8
9.071,0.777
9.072,0.784
9.073,0.774
9.074,0.79
9.075,0.774
9.076,0.777
9.077,0.784
9.078,0.79
9.079,0.793
9.08,0.79
9.081,0.8
9.082,0.816
9.083,0.826
9.084,0.83
9.085,0.826
9.086,0.856
9.087,0.859
9.088,0.853
9.089,0.859
9.09,0.849
9.091,0.862
9.092,0.872
9.093,0.866
9.094,0.866
9.095,0.866
9.096,0.885
9.097,0.882
9.098,0.889
9.099,0.918
9.1,0.931
9.101,0.938
9.102,0.925
9.103,0.931
9.104,0.951
9.105,0.951
9.106,0.945
9.107,0.938
9.108,0.961
9.109,0.955
9.11,0.938
9.111,0.948
9.112,0.948
9.113,0.964
9.114,0.961
9.115,0.945
9.116,0.948
9.117,0.932
9.118,0.944
9.119,0.941
9.12,0.932
9.121,0.954
9.122,0.938
9.123,0.958
9.124,0.948
9.125,0.951
9.126,0.954
9.127,0.958
9.128,0.938
9.129,0.925
9.13,0.938
9.131,0.919
9.132,0.905
9.133,0.908
9.134,0.892
9.135,0.892
9.136,0.892
9.137,0.889
9.138,0.885
9.139,0.882
9.14,0.895
9.141,0.879
9.142,0.879
9.143,0.879
9.144,0.863
9.145,0.866
9.146,0.862
9.147,0.853
9.148,0.846
9.149,0.849
9.15,0.84
9.151,0.813
9.152,0.813
9.153,0.803
9.154,0.797
9.155,0.8
9.156,0.774
9.157,0.767
9.158,0.78
9.159,0.787
9.16,0.784
9.161,0.787
9.162,0.793
9.163,0.797
9.164,0.794
9.165,0.797
9.166,0.781
9.167,0.79
9.168,0.79
9.169,0.774
9.17,0.771
9.171,0.757
9.172,0.757
9.173,0.751
9.174,0.754
9.175,0.754
9.176,0.738
9.177,0.754
9.178,0.757
9.179,0.748
9.18,0.76
9.181,0.774
9.182,0.774
9.183,0.767
9.184,0.77
9.185,0.77
9.186,0.767
9.187,0.78
9.188,0.758
9.189,0.767
9.19,0.767
9.191,0.741
9.192,0.738
9.193,0.738
9.194,0.751
9.195,0.735
9.196,0.741
9.197,0.757
9.198,0.748
9.199,0.783
9.2,0.8
9.201,0.803
9.202,0.816
9.203,0.839
9.204,0.865
9.205,0.866
9.206,0.872
9.207,0.902
9.208,0.908
9.209,0.921
9.21,0.922
9.211,0.925
9.212,0.974
9.213,0.987
9.214,1.039
9.215,1.076
9.216,1.125
9.217,1.132
9.218,1.148
9.219,1.171
9.22,1.181
9.221,1.233
9.222,1.221
9.223,1.208
9.224,1.188
9.225,1.184
9.226,1.197
9.227,1.188
9.228,1.194
9.229,1.194
9.23,1.198
9.231,1.191
9.232,1.152
9.233,1.142
9.234,1.171
9.235,1.136
9.236,1.083
9.237,1.024
9.238,0.978
9.239,0.945
9.24,0.889
9.241,0.876
9.242,0.859
9.243,0.866
9.244,0.804
9.245,0.751
9.246,0.725
9.247,0.695
9.248,0.662
9.249,0.61
9.25,0.577
9.251,0.541
9.252,0.514
9.253,0.491
9.254,0.446
9.255,0.393
9.256,0.373
9.257,0.324
9.258,0.288
9.259,0.281
9.26,0.281
9.261,0.307
9.262,0.33
9.263,0.386
9.264,0.412
9.265,0.445
9.266,0.452
9.267,0.432
9.268,0.445
9.269,0.465
9.27,0.488
9.271,0.478
9.272,0.504
9.273,0.501
9.274,0.517
9.275,0.531
9.276,0.511
9.277,0.547
9.278,0.599
9.279,0.629
9.28,0.655
9.281,0.668
9.282,0.678
9.283,0.714
9.284,0.734
9.285,0.754
9.286,0.738
9.287,0.767
9.288,0.78
9.289,0.774
9.29,0.78
9.291,0.774
9.292,0.784
9.293,0.774
9.294,0.771
9.295,0.767
9.296,0.767
9.297,0.78
9.298,0.787
9.299,0.784
9.3,0.787
9.301,0.8
9.302,0.794
9.303,0.79
9.304,0.803
9.305,0.8
9.306,0.794
9.307,0.813
9.308,0.787
9.309,0.806
9.31,0.81
9.311,0.794
9.312,0.797
9.313,0.79
9.314,0.79
9.315,0.774
9.316,0.777
9.317,0.78
9.318,0.793
9.319,0.797
9.32,0.787
9.321,0.797
9.322,0.813
9.323,0.81
9.324,0.816
9.325,0.81
9.326,0.816
9.327,0.816
9.328,0.816
9.329,0.816
9.33,0.81
9.331,0.807
9.332,0.807
9.333,0.787
9.334,0.8
9.335,0.803
9.336,0.813
9.337,0.79
9.338,0.803
9.339,0.82
9.34,0.81
9.341,0.82
9.342,0.813
9.343,0.823
9.344,0.839
9.345,0.843
9.346,0.833
9.347,0.82
9.348,0.836
9.349,0.833
9.35,0.817
9.351,0.81
9.352,0.807
9.353,0.813
9.354,0.813
9.355,0.8
9.356,0.803
9.357,0.803
9.358,0.829
9.359,0.817
9.36,0.813
9.361,0.82
9.362,0.826
9.363,0.839
9.364,0.836
9.365,0.817
9.366,0.833
9.367,0.843
9.368,0.833
9.369,0.82
9.37,0.817
9.371,0.813
9.372,0.81
9.373,0.813
9.374,0.797
9.375,0.797
9.376,0.816
9.377,0.794
9.378,0.81
9.379,0.826
9.38,0.83
9.381,0.843
9.382,0.839
9.383,0.839
9.384,0.839
9.385,0.856
9.386,0.843
9.387,0.843
9.388,0.839
9.389,0.833
9.39,0.833
9.391,0.823
9.392,0.83
9.393,0.813
9.394,0.816
9.395,0.82
9.396,0.803
9.397,0.813
9.398,0.826
9.399,0.83
9.4,0.83
9.401,0.843
9.402,0.856
9.403,0.853
9.404,0.856
9.405,0.866
9.406,0.859
9.407,0.875
9.408,0.856
9.409,0.846
9.41,0.856
9.411,0.843
9.412,0.839
9.413,0.817
9.414,0.839
9.415,0.817
9.416,0.823
9.417,0.849
9.418,0.846
9.419,0.84
9.42,0.836
9.421,0.849
9.422,0.856
9.423,0.862
9.424,0.879
9.425,0.872
9.426,0.863
9.427,0.885
9.428,0.856
9.429,0.879
9.43,0.866
9.431,0.846
9.432,0.846
9.433,0.84
9.434,0.836
9.435,0.82
9.436,0.833
9.437,0.836
9.438,0.846
9.439,0.849
9.44,0.846
9.441,0.869
9.442,0.872
9.443,0.859
9.444,0.869
9.445,0.872
9.446,0.879
9.447,0.872
9.448,0.866
9.449,0.856
9.45,0.859
9.451,0.869
9.452,0.859
9.453,0.846
9.454,0.859
9.455,0.853
9.456,0.849
9.457,0.836
9.458,0.852
9.459,0.879
9.46,0.885
9.461,0.879
9.462,0.863
9.463,0.879
9.464,0.889
9.465,0.889
9.466,0.885
9.467,0.879
9.468,0.892
9.469,0.866
9.47,0.859
9.471,0.859
9.472,0.859
9.473,0.869
9.474,0.863
9.475,0.846
9.476,0.866
9.477,0.856
9.478,0.872
9.479,0.859
9.48,0.879
9.481,0.879
9.482,0.876
9.483,0.885
9.484,0.879
9.485,0.879
9.486,0.892
9.487,0.889
9.488,0.869
9.489,0.863
9.49,0.885
9.491,0.872
9.492,0.863
9.493,0.866
9.494,0.859
9.495,0.866
9.496,0.856
9.497,0.853
9.498,0.859
9.499,0.869
9.5,0.869
9.501,0.866
9.502,0.879
9.503,0.882
9.504,0.889
9.505,0.892
9.506,0.889
9.507,0.899
9.508,0.892
9.509,0.879
9.51,0.889
9.511,0.869
9.512,0.876
9.513,0.853
9.514,0.866
9.515,0.862
9.516,0.853
9.517,0.866
9.518,0.869
9.519,0.863
9.52,0.869
9.521,0.872
9.522,0.879
9.523,0.879
9.524,0.885
9.525,0.898
9.526,0.889
9.527,0.889
9.528,0.872
9.529,0.876
9.53,0.889
9.531,0.863
9.532,0.859
9.533,0.849
9.534,0.866
9.535,0.853
9.536,0.843
9.537,0.872
9.538,0.863
9.539,0.885
9.54,0.882
9.541,0.872
9.542,0.882
9.543,0.885
9.544,0.879
9.545,0.872
9.546,0.895
9.547,0.892
9.548,0.869
9.549,0.879
9.55,0.856
9.551,0.869
9.552,0.876
9.553,0.872
9.554,0.863
9.555,0.84
9.556,0.879
9.557,0.872
9.558,0.876
9.559,0.892
9.56,0.889
9.561,0.915
9.562,0.909
9.563,0.905
9.564,0.912
9.565,0.935
9.566,0.935
9.567,0.918
9.568,0.915
9.569,0.925
9.57,0.918
9.571,0.905
9.572,0.902
9.573,0.908
9.574,0.925
9.575,0.912
9.576,0.922
9.577,0.915
9.578,0.954
9.579,0.951
9.58,0.951
9.581,0.967
9.582,0.964
9.583,0.974
9.584,0.971
9.585,0.974
9.586,0.968
9.587,0.968
9.588,0.968
9.589,0.958
9.59,0.954
9.591,0.938
9.592,0.932
9.593,0.931
9.594,0.912
9.595,0.928
9.596,0.912
9.597,0.918
9.598,0.896
9.599,0.902
9.6,0.931
9.601,0.925
9.602,0.922
9.603,0.928
9.604,0.925
9.605,0.925
9.606,0.915
9.607,0.909
9.608,0.905
9.609,0.902
9.61,0.899
9.611,0.879
9.612,0.882
9.613,0.876
9.614,0.866
9.615,0.869
9.616,0.853
9.617,0.866
9.618,0.872
9.619,0.859
9.62,0.862
9.621,0.879
9.622,0.889
9.623,0.879
9.624,0.869
9.625,0.885
9.626,0.879
9.627,0.879
9.628,0.869
9.629,0.853
9.63,0.846
9.631,0.843
9.632,0.839
9.633,0.826
9.634,0.839
9.635,0.839
9.636,0.823
9.637,0.83
9.638,0.83
9.639,0.849
9.64,0.853
9.641,0.846
9.642,0.846
9.643,0.846
9.644,0.866
9.645,0.856
9.646,0.849
9.647,0.862
9.648,0.853
9.649,0.843
9.65,0.839
9.651,0.82
9.652,0.817
9.653,0.826
9.654,0.833
9.655,0.807
9.656,0.813
9.657,0.829
9.658,0.82
9.659,0.83
9.66,0.836
9.661,0.83
9.662,0.849
9.663,0.846
9.664,0.846
9.665,0.84
9.666,0.846
9.667,0.846
9.668,0.83
9.669,0.836
9.67,0.826
9.671,0.82
9.672,0.823
9.673,0.823
9.674,0.813
9.675,0.81
9.676,0.833
9.677,0.813
9.678,0.816
9.679,0.833
9.68,0.826
9.681,0.849
9.682,0.846
9.683,0.827
9.684,0.839
9.685,0.856
9.686,0.856
9.687,0.84
9.688,0.836
9.689,0.852
9.69,0.836
9.691,0.839
9.692,0.82
9.693,0.82
9.694,0.836
9.695,0.817
9.696,0.816
9.697,0.816
9.698,0.836
9.699,0.833
9.7,0.836
9.701,0.846
9.702,0.846
9.703,0.875
9.704,0.869
9.705,0.863
9.706,0.866
9.707,0.859
9.708,0.866
9.709,0.849
9.71,0.853
9.711,0.846
9.712,0.84
9.713,0.839
9.714,0.83
9.715,0.826
9.716,0.836
9.717,0.846
9.718,0.846
9.719,0.84
9.72,0.862
9.721,0.853
9.722,0.856
9.723,0.862
9.724,0.856
9.725,0.872
9.726,0.872
9.727,0.853
9.728,0.856
9.729,0.856
9.73,0.849
9.731,0.827
9.732,0.839
9.733,0.839
9.734,0.833
9.735,0.83
9.736,0.83
9.737,0.826
9.738,0.843
9.739,0.846
9.74,0.849
9.741,0.862
9.742,0.879
9.743,0.872
9.744,0.866
9.745,0.872
9.746,0.876
9.747,0.872
9.748,0.859
9.749,0.856
9.75,0.849
9.751,0.849
9.752,0.846
9.753,0.84
9.754,0.843
9.755,0.846
9.756,0.836
9.757,0.826
9.758,0.836
9.759,0.826
9.76,0.846
9.761,0.849
9.762,0.849
9.763,0.84
9.764,0.856
9.765,0.862
9.766,0.856
9.767,0.862
9.768,0.846
9.769,0.849
9.77,0.856
9.771,0.827
9.772,0.83
9.773,0.82
9.774,0.833
9.775,0.81
9.776,0.813
9.777,0.823
9.778,0.813
9.779,0.829
9.78,0.826
9.781,0.83
9.782,0.836
9.783,0.846
9.784,0.849
9.785,0.846
9.786,0.843
9.787,0.853
9.788,0.836
9.789,0.833
9.79,0.817
9.791,0.813
9.792,0.826
9.793,0.817
9.794,0.807
9.795,0.787
9.796,0.806
9.797,0.807
9.798,0.807
9.799,0.826
9.8,0.817
9.801,0.842
9.802,0.826
9.803,0.836
9.804,0.843
9.805,0.849
9.806,0.846
9.807,0.84
9.808,0.82
9.809,0.826
9.81,0.807
9.811,0.813
9.812,0.803
9.813,0.797
9.814,0.82
9.815,0.8
9.816,0.807
9.817,0.79
9.818,0.803
9.819,0.823
9.82,0.826
9.821,0.826
9.822,0.807
9.823,0.823
9.824,0.836
9.825,0.826
9.826,0.82
9.827,0.82
9.828,0.823
9.829,0.8
9.83,0.8
9.831,0.8
9.832,0.797
9.833,0.803
9.834,0.79
9.835,0.771
9.836,0.79
9.837,0.793
9.838,0.797
9.839,0.8
9.84,0.803
9.841,0.816
9.842,0.813
9.843,0.816
9.844,0.8
9.845,0.823
9.846,0.833
9.847,0.82
9.848,0.81
9.849,0.803
9.85,0.816
9.851,0.8
9.852,0.79
9.853,0.787
9.854,0.793
9.855,0.803
9.856,0.784
9.857,0.78
9.858,0.797
9.859,0.794
9.86,0.8
9.861,0.81
9.862,0.803
9.863,0.807
9.864,0.82
9.865,0.83
9.866,0.81
9.867,0.82
9.868,0.82
9.869,0.817
9.87,0.82
9.871,0.794
9.872,0.793
9.873,0.8
9.874,0.797
9.875,0.8
9.876,0.774
9.877,0.793
9.878,0.8
9.879,0.784
9.88,0.8
9.881,0.807
9.882,0.816
9.883,0.813
9.884,0.826
9.885,0.817
9.886,0.826
9.887,0.826
9.888,0.8
9.889,0.8
9.89,0.8
9.891,0.79
9.892,0.787
9.893,0.78
9.894,0.777
9.895,0.774
9.896,0.777
9.897,0.787
9.898,0.787
9.899,0.8
9.9,0.8
9.901,0.8
9.902,0.81
9.903,0.81
9.904,0.807
9.905,0.8
9.906,0.813
9.907,0.81
9.908,0.81
9.909,0.797
9.91,0.781
9.911,0.79
9.912,0.793
9.913,0.78
9.914,0.787
9.915,0.774
9.916,0.78
9.917,0.771
9.918,0.783
9.919,0.793
9.92,0.79
9.921,0.819
9.922,0.81
9.923,0.8
9.924,0.816
9.925,0.81
9.926,0.807
9.927,0.8
9.928,0.797
9.929,0.8
9.93,0.794
9.931,0.797
9.932,0.767
9.933,0.783
9.934,0.79
9.935,0.784
9.936,0.784
9.937,0.777
9.938,0.797
9.939,0.794
9.94,0.797
9.941,0.807
9.942,0.807
9.943,0.816
9.944,0.836
9.945,0.81
9.946,0.816
9.947,0.823
9.948,0.817
9.949,0.81
9.95,0.807
9.951,0.8
9.952,0.803
9.953,0.803
9.954,0.774
9.955,0.793
9.956,0.813
9.957,0.829
9.958,0.836
9.959,0.846
9.96,0.859
9.961,0.885
9.962,0.885
9.963,0.892
9.964,0.892
9.965,0.908
9.966,0.912
9.967,0.905
9.968,0.905
9.969,0.905
9.97,0.918
9.971,0.909
9.972,0.912
9.973,0.912
9.974,0.912
9.975,0.915
9.976,0.912
9.977,0.915
9.978,0.938
9.979,0.938
9.98,0.958
9.981,0.971
9.982,0.984
9.983,0.997
9.984,1.017
9.985,1.017
9.986,1.017
9.987,1.023
9.988,1.001
9.989,0.971
9.99,0.961
9.991,0.958
9.992,0.954
9.993,0.954
9.994,0.938
9.995,0.948
9.996,0.935
9.997,0.958
9.998,0.958
9.999,0.951
10,0.964
10.001,0.968
10.002,0.958
10.003,0.958
10.004,0.977
10.005,0.961
10.006,0.951
10.007,0.961
10.008,0.945
10.009,0.938
10.01,0.935
10.011,0.909
10.012,0.908
10.013,0.892
10.014,0.86
10.015,0.843
10.016,0.846
10.017,0.849
10.018,0.856
10.019,0.859
10.02,0.846
10.021,0.869
10.022,0.863
10.023,0.853
10.024,0.853
10.025,0.843
10.026,0.862
10.027,0.833
10.028,0.817
10.029,0.823
10.03,0.81
10.031,0.8
10.032,0.79
10.033,0.793
10.034,0.78
10.035,0.793
10.036,0.787
10.037,0.764
10.038,0.793
10.039,0.784
10.04,0.774
10.041,0.79
10.042,0.8
10.043,0.8
10.044,0.781
10.045,0.81
10.046,0.803
10.047,0.79
10.048,0.803
10.049,0.79
10.05,0.777
10.051,0.784
10.052,0.761
10.053,0.764
10.054,0.764
10.055,0.761
10.056,0.767
10.057,0.77
10.058,0.77
10.059,0.764
10.06,0.79
10.061,0.777
10.062,0.774
10.063,0.78
10.064,0.797
10.065,0.803
10.066,0.79
10.067,0.79
10.068,0.797
10.069,0.797
10.07,0.813
10.071,0.803
10.072,0.807
10.073,0.816
10.074,0.829
10.075,0.843
10.076,0.849
10.077,0.872
10.078,0.902
10.079,0.921
10.08,0.951
10.081,0.964
10.082,0.987
10.083,1.03
10.084,1.05
10.085,1.099
10.086,1.141
10.087,1.171
10.088,1.181
10.089,1.188
10.09,1.191
10.091,1.188
10.092,1.24
10.093,1.231
10.094,1.195
10.095,1.194
10.096,1.181
10.097,1.194
10.098,1.198
10.099,1.204
10.1,1.211
10.101,1.233
10.102,1.227
10.103,1.185
10.104,1.197
10.105,1.22
10.106,1.188
10.107,1.136
10.108,1.07
10.109,1.021
10.11,0.971
10.111,0.919
10.112,0.87
10.113,0.85
10.114,0.84
10.115,0.787
10.116,0.722
10.117,0.705
10.118,0.669
10.119,0.639
10.12,0.603
10.121,0.593
10.122,0.564
10.123,0.55
10.124,0.524
10.125,0.485
10.126,0.452
10.127,0.406
10.128,0.347
10.129,0.317
10.13,0.311
10.131,0.291
10.132,0.291
10.133,0.32
10.134,0.356
10.135,0.383
10.136,0.419
10.137,0.419
10.138,0.432
10.139,0.458
10.14,0.465
10.141,0.494
10.142,0.511
10.143,0.537
10.144,0.544
10.145,0.563
10.146,0.583
10.147,0.583
10.148,0.599
10.149,0.639
10.15,0.655
10.151,0.672
10.152,0.682
10.153,0.698
10.154,0.701
10.155,0.731
10.156,0.741
10.157,0.751
10.158,0.783
10.159,0.777
10.16,0.79
10.161,0.803
10.162,0.813
10.163,0.82
10.164,0.826
10.165,0.83
10.166,0.826
10.167,0.817
10.168,0.82
10.169,0.79
10.17,0.797
10.171,0.8
10.172,0.797
10.173,0.8
10.174,0.787
10.175,0.797
10.176,0.803
10.177,0.807
10.178,0.81
10.179,0.79
10.18,0.836
10.181,0.826
10.182,0.826
10.183,0.836
10.184,0.833
10.185,0.846
10.186,0.846
10.187,0.836
10.188,0.83
10.189,0.826
10.19,0.836
10.191,0.807
10.192,0.807
10.193,0.807
10.194,0.8
10.195,0.797
10.196,0.81
10.197,0.813
10.198,0.82
10.199,0.817
10.2,0.826
10.201,0.82
10.202,0.846
10.203,0.846
10.204,0.827
10.205,0.846
10.206,0.84
10.207,0.852
10.208,0.83
10.209,0.836
10.21,0.83
10.211,0.83
10.212,0.833
10.213,0.81
10.214,0.81
10.215,0.816
10.216,0.81
10.217,0.82
10.218,0.813
10.219,0.816
10.22,0.829
10.221,0.846
10.222,0.846
